time,emg1,emg2,emg3,emg4,emg5,emg6,emg7,emg8
0,18.3174844272168,4.862734858717136,5.49108131750248,18.65615832181081,28.53040568892176,18.05163198571726,16.216974820451096,4.574969043505835
1,19.49335147984583,5.194226592253978,5.260216180582514,17.270291219655824,27.308793579703632,17.626678242393897,16.91380794720955,4.43717315003807
2,21.262861784528738,5.592365499132087,4.876677050886167,15.208888753856675,24.98424791785292,17.267367690151016,17.845186545903957,4.180347827335446
3,22.605896154495554,5.757485352952484,4.443256336416876,13.403083567491924,21.91901186761416,17.53301874366115,18.277436574959566,3.8300220687954765
4,22.5347632614979,5.584049171133827,4.079104051745469,12.500252058487,18.75823071769837,18.801755677266556,17.840373825679144,3.4162148455373345
5,20.80823134402487,5.205654543454362,3.9259186115176474,12.73095778006681,16.35153230284041,21.388075686706443,17.067575601057204,3.015643197307453
6,18.217265904830878,4.871317501414352,4.052370866315223,14.027533020882531,15.556893073570674,25.455039436269356,16.917350307650327,2.783243672022
7,15.990707913021396,4.761771296152515,4.337063282261759,16.03178253616884,16.759451185347075,30.383179284596665,17.632592331308416,2.870933471434122
8,14.892606174807643,4.8706137114633155,4.541754457218781,18.01962475211249,19.315938215666435,34.39506194306196,18.38494173594621,3.2873988582809077
9,14.930528749620738,5.039687535762058,4.5434129195400565,19.14529002044989,21.710741206302465,35.479730802035604,18.172269080161122,3.8682781532299595
10,15.80428697867124,5.115048248724631,4.449465066230428,18.995557527219127,22.673451750044485,33.130199205599325,16.84616794780263,4.395865499991399
11,17.370197792109185,5.0642416965449675,4.453576334535685,17.870164644548325,22.23741783420145,29.035908428314595,15.162394638558622,4.726193070603844
12,19.540634631427107,4.942892596555827,4.602285803611813,16.50951449638929,21.638130332089016,25.78089489705861,14.024084394699557,4.8163881035212555
13,21.907448815000514,4.787424313896446,4.735851389455574,15.60298562683959,22.1744915581697,24.850706541269396,13.800061297547813,4.694000960511415
14,23.779251593199113,4.598181968484451,4.6624456475392035,15.447600045925517,24.053910182537518,25.912727091977885,14.246314978368638,4.437940362009618
15,24.70876403325176,4.405157697860732,4.351495003388396,15.848870724400854,26.16694081864247,27.692101821042034,14.935463288618266,4.167297702696696
16,24.872425796546594,4.271329133645844,3.9308614572545655,16.267924765833314,27.062508247533906,29.158213770091226,15.723133743733943,4.0049577339300395
17,24.86871798404215,4.224224343485257,3.5474767760349235,16.146790632116513,26.35499572854473,30.01307736957407,16.7834968386713,4.016109455302229
18,25.19807776709956,4.251522024518147,3.2904531988945296,15.243529681615351,25.286887913603415,30.561091563604574,18.18484624554502,4.154880828726821
19,25.838704899401485,4.358605406254991,3.213989453970071,13.801166410277862,25.83943679052032,31.258671348493536,19.5175507667291,4.276408476728256
20,26.233758181807005,4.551383708717863,3.3450179454063904,12.382771263044285,29.033493101405302,32.08973969317965,20.069240243842284,4.2401720245588255
21,25.84919540884497,4.75268954443036,3.6432017653811664,11.422023199380304,33.91769724610488,32.42017307699058,19.423228897332223,4.025264125344278
22,24.79069454793875,4.8076165697271716,3.9979707639514914,10.937570373142783,38.284681185499934,31.692629526955372,17.861648493413757,3.721643539537621
23,23.626712855160516,4.621369816323926,4.294838058342625,10.690949653155382,40.452908924805314,30.07988680481283,16.145518811013186,3.423772493764883
24,22.655837235693394,4.273038978455618,4.479685877442366,10.478285941862527,40.30555703017086,28.304169942422547,14.89103571596888,3.196186920542544
25,21.764153530717415,3.960182458284476,4.57064706880316,10.211674171297798,38.8737410613691,27.145800461848765,14.16583471534797,3.1253084018291775
26,20.963250222064644,3.8507186872059593,4.641236067804975,9.887569434355783,37.33475284914967,27.182461561316345,13.63435505126522,3.3035682177777526
27,20.59648757367803,4.006925838089628,4.804996775441908,9.596553946912064,36.32538547157569,28.445665563238585,12.995720384827697,3.725823138747852
28,20.94688459997543,4.40382559532433,5.178197768033931,9.47029854009057,35.71272028860783,30.104161869386303,12.248591287416687,4.253325937569253
29,21.94574364598666,4.9534206859150585,5.790281308889923,9.513919930935216,34.86732641883781,30.985509133115173,11.640818166705404,4.7090107258186045
30,23.27016270764391,5.506728663052314,6.510734270756808,9.56841345339253,33.44679805722184,30.718227667897395,11.512120339826481,4.999587286566642
31,24.517209757850907,5.871371799861157,7.0954300616243495,9.504427232130553,31.9623206988412,30.04308826774952,12.160675671322164,5.14139859259328
32,25.37913075572445,5.886212977219712,7.329737371798107,9.391577737301066,31.334606314258565,29.90365740019032,13.672430171672046,5.184424904814443
33,25.852492047815858,5.531148104415953,7.136811203581542,9.4006493468851,31.84473498031094,30.5601488251273,15.726587557672673,5.133364247635486
34,26.152936100554186,4.975184992231316,6.587909609526903,9.574985198899695,32.70546456380738,31.56725413637306,17.56380529169133,4.961963893919706
35,26.278978803345698,4.490200538384338,5.856931000014864,9.759794693825274,32.70725794660095,32.18980988438138,18.305062251652338,4.69513593188003
36,25.835283918129115,4.305616482965029,5.158590777554864,9.73740924744787,31.28040488810057,31.82148169889954,17.506386727673128,4.439534733181223
37,24.471754465562483,4.514567180833125,4.66599735643373,9.383244284717787,29.01625513201638,30.382337753715845,15.469201504725383,4.31372196871161
38,22.452736535039378,5.036589591210866,4.423377885738967,8.710418634987953,27.207254383466392,28.362793707671816,13.004515911263733,4.346895234755048
39,20.687343982377154,5.623890801896636,4.339822482124655,7.836699092927983,26.73968800517703,26.33605591601789,10.970009122913677,4.44118817894066
40,20.083780044520946,5.97261126750297,4.30027714195271,6.968613070593675,27.267984463034693,24.571143633107255,9.999680379948762,4.449472099335825
41,20.72461665470135,5.915668235570799,4.26248283568483,6.398106164361945,27.50153837331471,23.134915810661795,10.379869332316405,4.310641427686038
42,21.70596112263273,5.522848109579197,4.214782768404418,6.37009861220916,26.3574756278989,22.02609674785497,11.881827410055461,4.0864939504296425
43,22.027997368788295,5.013467427656523,4.109636158066093,6.8532014066063205,23.901831438739414,21.095180242390867,13.724779243867168,3.8638309958626564
44,21.63617991658603,4.595726845870437,3.920453874137389,7.527265560667936,21.23528116504492,20.110496396640343,14.931205653131977,3.676921782266091
45,21.296938567288933,4.377572860809266,3.71580340749761,8.107019487655723,19.586796500302107,19.026002601309457,14.941633426524696,3.545793726993055
46,21.496838719630503,4.371470843323267,3.59374681086904,8.616810108996674,19.53904959222008,18.08412996647314,14.017304509491396,3.5244830225908363
47,21.900546664729397,4.530664593267433,3.574123006077544,9.232516234658275,20.88214482835974,17.620677865886414,13.03135169802205,3.6534039966013516
48,21.988258906587966,4.778642958941384,3.604859762053609,9.901145404379292,22.853865864844806,17.808785624686266,12.770162710901582,3.880901626461554
49,21.83091273850998,5.036573861598436,3.6225101998863942,10.270602977236623,24.49168718296557,18.570667030628794,13.336650196883966,4.0739216470413515
50,21.94752421590728,5.224908587825018,3.5660528594768293,10.057077788169476,25.08530585559288,19.70213200682088,14.158630189749143,4.125796469003596
51,22.547092965581207,5.231388277327584,3.392344508638976,9.37145985484751,24.519178204861408,21.011303881967887,14.564069394021136,4.036743727342751
52,23.1983635001637,4.955085322925996,3.1265510628175543,8.614149662233125,23.29233572171494,22.284342866689585,14.392866088024412,3.8787650809885665
53,23.334092270807847,4.448136690363462,2.864777892983141,8.16007551287018,22.32410447736874,23.204402086389933,14.074368198632609,3.7250124362648096
54,22.870068418623042,3.9422465112073555,2.70085061565257,8.209142627502853,22.624755901574495,23.50928917598439,14.117843428592039,3.634347372784686
55,22.10409936047308,3.65964778740034,2.673889735056188,8.758472818041302,24.744909744164374,23.312727140196717,14.560469554946273,3.637128479865325
56,21.14448103940075,3.6394351068958866,2.7794876147288,9.551860080794377,28.328559924186848,23.140792201472294,14.95916902285354,3.691244965930693
57,19.817461705865338,3.7708941265574043,2.9711698312650725,10.162909772180825,32.29253160435198,23.4510076067283,14.907237615600739,3.7001783349321435
58,18.164055844520455,3.9342911656229145,3.14124022682632,10.298499193728315,35.51172194263034,24.15638645554105,14.441104340375759,3.6188897088965017
59,16.659873995743865,4.081923886257896,3.175905100891576,10.034470874216424,37.416843344223935,24.749975004009514,13.93067849304109,3.5147685776885154
60,15.759115474339378,4.237949972555173,3.0765814563806018,9.713760572495568,38.12776598584873,24.756734081850272,13.739441639009787,3.4971680911918943
61,15.388389922931609,4.457146240329675,2.997491947935286,9.618563380209903,38.07118217924658,23.922807172398482,14.055436683277804,3.6020701307072436
62,15.093898099464713,4.749139805448242,3.1285372784139183,9.731085698250816,37.390288544005486,22.33732229953828,14.885907241835028,3.7560834035950648
63,14.696786170104563,5.012715090659237,3.5269087623122615,9.792800459630037,35.84921472871751,20.83375975424824,16.04488795795221,3.8484526196025355
64,14.610242308262253,5.083956495514785,4.051319557694747,9.597418701473465,33.407456937856175,21.04373632954219,17.204000165080807,3.839784210633649
65,15.304107743140257,4.878047364736895,4.467606804356899,9.201252049650593,30.656891614832915,24.273750794623997,18.07249247369773,3.8009286955114736
66,16.50597103323856,4.45026997634163,4.632384862122958,8.82116834269848,28.4259839736842,29.87270222504977,18.52382850678195,3.8374153970980114
67,17.189458115560257,3.9217059602272526,4.576824074117055,8.566797520304625,26.951052541793523,34.982006082622064,18.491785470611298,3.9877339114048667
68,16.51732493707072,3.411047961834722,4.428946901524535,8.348486403228092,25.65726888349808,36.52334048586039,17.861441156003988,4.221793115648149
69,14.786898310006745,3.0355280686543873,4.273384124768633,8.040045849797929,23.996978920049948,33.734023723081364,16.644597975964587,4.514783175511959
70,13.334555209767238,2.883861325199281,4.085814035043194,7.640269065068923,22.4024729760801,28.59918430164054,15.193026077702354,4.862561449845881
71,13.39571378843555,2.942797134019897,3.804810889544562,7.239025352098264,22.09764086750892,23.935782162638752,14.0453947190382,5.225763361922448
72,15.002612101496954,3.0882142815168114,3.4530054952451166,6.8986708007069435,23.904595048976134,21.45059745009071,13.547384331954518,5.531316331613127
73,17.032771927037576,3.179336993396625,3.1415948929202653,6.667513379594879,27.36535357027988,21.365670088085174,13.631243052432024,5.755390681095712
74,18.32004680905139,3.155267764527738,2.9567400257397733,6.679341720993181,30.9380582874875,23.047083977867004,13.937315419360884,5.95078472426005
75,18.576549445443014,3.0483875347239997,2.90341631388375,7.111934420672552,32.980851215968336,25.514998284487866,14.202120525690002,6.161888843981246
76,18.231188621924556,2.9366657400110503,2.964164263024352,7.983008622163592,32.847972606346204,27.612864592117745,14.506686187420886,6.368934011131948
77,17.73424820190938,2.883447480920702,3.134218823012912,9.049351178267075,31.35374959868994,28.360968363460845,15.047056043167235,6.556170689038021
78,17.36180271712428,2.8973116961176943,3.380912130316287,9.982497073114057,30.1262970605801,27.612205737347168,15.742370009960194,6.800251846604466
79,17.477372017751442,2.943109416504148,3.6343523462845737,10.621883939660727,30.216402551112147,26.19686617945247,16.230468602050315,7.211602157609012
80,18.446222395986233,3.0024856241189712,3.829796300964528,10.990647977900512,31.13935681198563,25.10602226466748,16.207142376939228,7.743929775215044
81,20.111587850540538,3.1168636843940556,3.9163310811314243,11.107242541052145,31.33293857414852,24.68554507935956,15.643406178144915,8.109449695366793
82,21.647107949434478,3.364150843652011,3.850911727868719,10.918312001394803,29.676107356613556,24.771198623489372,14.703069334229504,7.979523324399687
83,22.216169156158685,3.782924343327361,3.6563145698617925,10.422130607096685,26.518320026353773,25.1215291151198,13.57611956555623,7.303098403199366
84,21.74400011266433,4.29092474533718,3.4627219792554715,9.744882211863702,23.33492851355014,25.39706737923924,12.473289661002857,6.401196816460265
85,20.864692304195522,4.677816095502471,3.41962109615564,9.066821405277697,21.676004961092413,25.222963291735304,11.67846615760634,5.761643522656668
86,20.177613142995092,4.738299088420431,3.5699967582798067,8.518741074923273,22.232063382743284,24.73115385720979,11.411014556906222,5.7912154892532275
87,19.842904054525537,4.457522970098733,3.8514757062364033,8.144292053516603,24.349995206096608,24.774204443971175,11.631302572725433,6.687260749950903
88,19.85624050290584,4.042141787381426,4.190990791661434,7.942353498358364,26.427035627228335,26.269582899127265,12.064748909461814,8.346265147403727
89,20.26308689624181,3.767733143880137,4.52712965170412,7.9441853151511665,27.230698790459293,29.35386328444654,12.39044527293447,10.306589945489849
90,20.925528334563584,3.8246035689948736,4.7534450960006716,8.201082308797453,26.860645950589,33.13412520694095,12.44349122871225,11.910612455907245
91,21.45606818704052,4.248992493188664,4.748236780255105,8.648453336318042,26.308585287806643,36.1388394648712,12.379310505470153,12.65720122642182
92,21.58536140100955,4.882872588430081,4.504927414218869,9.015598383720473,26.397213609559948,37.11341045440192,12.648689034496655,12.428330922807373
93,21.3702441218359,5.406520527487488,4.159287399718735,8.970248694972057,27.3126818941061,35.6844895949005,13.667042630590679,11.443223323820844
94,21.058999083654594,5.530428413790046,3.860400011154537,8.400756902052699,28.62391030704287,32.52426950587339,15.41717799446521,10.107457351820933
95,21.049773103606782,5.200495102843066,3.68548049474704,7.551382130968756,29.4642773444947,28.87669653105739,17.41295914972819,8.87262523702887
96,21.845883656156957,4.596183682752539,3.6914208941521536,6.873608753923119,29.128204988375987,25.68658516894394,19.081384800190612,8.091449285540163
97,23.613205975430056,3.963451587396446,3.9619851677768803,6.763333416540447,27.741995142923578,23.08644125308316,20.14221880269403,7.899753746017799
98,25.77918205388708,3.495333461207984,4.539823700373459,7.368521281187966,26.091064288240894,20.791306162293594,20.549708452612528,8.150965571819308
99,27.341503783541263,3.3232253214440557,5.320630306232477,8.481133780050543,24.739642312203816,18.847763759772988,20.19011765241195,8.439825315646596
100,27.621784280866283,3.51788650191165,6.043958888353368,9.571170146484736,23.625592269663215,17.739820731976206,18.896488415103654,8.313001231105636
101,26.70320418152832,4.031789991017536,6.439761923984538,10.129003615874062,22.53192192995961,17.865838823596057,16.825021889181475,7.58604723403216
102,25.235082094753473,4.660896697144961,6.4116842606701825,10.149018166714674,21.51908919214423,19.189803352074986,14.639255683585766,6.47987254291817
103,23.85095555308868,5.1317960076954625,6.067457061520372,10.151389165762247,20.65283996757599,21.32533723802798,13.176340568287372,5.455838016901833
104,22.812572696868784,5.261803787103291,5.600074479994797,10.553370802218799,19.70503251644713,23.691974575993235,12.893558063405967,4.907716495255515
105,22.30472088265276,5.042972443903306,5.180005790157873,11.132676914218916,18.571313552474805,25.666271881548006,13.584725594913776,4.912366235057231
106,22.763525191845055,4.61021861541659,4.913056264138364,11.293064787312687,17.75307230909807,26.899938668167955,14.537942248445708,5.175452267247826
107,24.402751529626617,4.162889473980753,4.825488700772558,10.759010341187693,18.018044534020255,27.52536523358941,15.008379325459671,5.251579104721097
108,26.46159384371129,3.876204459531893,4.889601260425492,9.829341254265936,19.6179178160108,27.82224528895994,14.73192249251591,4.923926435435119
109,27.501088509179944,3.813439127589879,5.066799178808786,9.025956407455105,22.019574136048547,27.71415890527674,14.040187805623123,4.37431476407896
110,26.772455249869857,3.8996201351003297,5.294755722608216,8.65983272606971,24.302369615491664,26.909647244971815,13.390159111874848,3.9413291608355934
111,25.095053384043048,3.9905237857105753,5.452792428972732,8.701196203786619,25.742828240697946,25.531909221474752,12.875866182604419,3.7660252778744594
112,24.16471406972059,3.978957502309366,5.413602826646589,8.910704965704491,26.11335646670178,24.23749086539032,12.327307655227806,3.723901955759593
113,25.100888076253543,3.8546933762817295,5.1545402988259355,9.03784056077845,25.56579019894111,23.593988648824052,11.725788414790081,3.6324580901340546
114,27.748825510902865,3.69184342832306,4.77739714448245,8.964686001595929,24.393535048718647,23.632611714180747,11.303998426304304,3.4393254240125763
115,31.093357396620334,3.5862854521306424,4.4225721816118195,8.773640847954029,23.06421748330044,24.11802048300056,11.285946089883039,3.2359079269442583
116,34.023024976437675,3.5814286083680402,4.206825852506632,8.701029697768172,22.3354218660141,24.922237726500384,11.62502979453101,3.148711761056524
117,35.75654825656354,3.6412978058625582,4.207180147495961,8.955810803955284,22.96145244241171,25.936615341701394,11.958009690871386,3.2241833736759613
118,35.866309700685726,3.7109783229924265,4.412533872690215,9.538618917557883,25.088911570418272,26.87676350898388,11.853375324355294,3.3919847371276113
119,34.19011104312912,3.800641347847216,4.697475089547727,10.243641180668202,27.91726129630939,27.43228560257198,11.27052776071118,3.5401005822488414
120,30.930246494270467,3.9855183358763604,4.92104840973861,10.82443302213515,30.001188096858122,27.580666879389938,10.79742703761986,3.6375898233821222
121,26.85962310472727,4.316359812365995,5.064847997620083,11.154313825068332,30.149087480458107,27.572924733710874,11.211477264601712,3.7725267395040856
122,23.13401677651094,4.727573268049105,5.231589594055726,11.243299419068565,28.28985377038093,27.52549014774005,12.647689006785175,4.038541615511597
123,20.620591906512978,5.029491068634821,5.490318401623176,11.081824216618042,25.377893259276913,27.223281103058333,14.283043697773165,4.389783775027176
124,19.359906581162406,5.02039504740537,5.758123317345652,10.52518990919669,22.411143665211792,26.623505967921265,14.98245667687188,4.6436912816306855
125,18.70588860547797,4.661135175330516,5.8716706967270955,9.477870598303511,19.841733112852744,26.381936150207494,14.274283740588388,4.638750592980727
126,17.933905927350537,4.1521478318937834,5.766408769554282,8.179754700109608,17.861127347709594,27.352149254226653,12.638296612970517,4.365385633016785
127,16.782240340950377,3.800815805748833,5.544936476184974,7.1520334460964445,16.71050918468952,29.448444082279476,10.938898831531201,3.9443770811413223
128,15.608290341504684,3.77907911778878,5.371224702219795,6.8200137823157725,16.539534079720134,31.387125326269004,9.767953458002689,3.529818574427553
129,15.045144088854,3.9982968443747717,5.34792632472214,7.219488325128205,17.250222068358113,31.7265225980996,9.251345409255045,3.2463214170551553
130,15.349414556165264,4.220122106906978,5.498059750977329,7.999833271417371,18.553284108080256,30.05039677926304,9.204180458728693,3.1498619765816835
131,16.084260292145075,4.29480293371587,5.764600212503192,8.638555336785501,20.001380848646694,27.243458118922774,9.409570124859302,3.194024217485725
132,16.579944808659405,4.2827621586569045,5.962227280949287,8.769698938206922,21.03274901187183,24.79112728371783,9.853144118519388,3.2618772720558917
133,16.6295991336569,4.335928738818276,5.828451819131651,8.48128332385642,21.373740484032517,23.695777319880076,10.70007609414165,3.2669710058595176
134,16.58262377195456,4.495095039305583,5.240750331983735,8.268078290842528,21.530764756313076,23.91575817149819,11.99959577729567,3.210279902269049
135,16.84145037053069,4.639771116838315,4.36138057041975,8.561505102351102,22.520044538170854,24.798031471895555,13.445123751967245,3.1349197840101892
136,17.427177407054394,4.624044947894598,3.5200031204026505,9.28941546747945,24.817584880584164,25.85580108240483,14.509809503613202,3.0679431667351906
137,17.99731666923273,4.441191575492487,2.991456460143193,9.96496827981564,27.796809023440222,26.97479285291299,14.82524686301354,3.0339858558897195
138,18.181202681220213,4.250817934235782,2.884924921081309,10.19426444366275,30.43466670993055,28.154989126593335,14.401470289352112,3.081754975961399
139,17.88155333099116,4.237750574558791,3.1407707976370753,10.020655019363861,32.37877671992813,29.37738306461886,13.522442096500184,3.233494528525875
140,17.270680700239495,4.443994338636571,3.573639318609405,9.775792097224343,34.04511307972017,30.547112263788854,12.544253494974416,3.4181585785903374
141,16.589173148732144,4.750648698646985,3.9740341854049737,9.70078111961509,35.738499727319144,31.321143376173755,11.785727402691869,3.5235519621325277
142,16.09451847855137,5.002434773460659,4.231825176308794,9.78248845727858,36.90371248414138,31.24468196759947,11.430553601168222,3.534113050609462
143,16.127230449919914,5.105276227788177,4.3826545807018045,9.86671425058564,36.398410057981195,30.254193794609826,11.40312781255675,3.5552039879604136
144,16.93408203499674,5.021902335351298,4.5476188077128565,9.805089171971687,33.57565346923416,28.845114526187444,11.436226848279281,3.6661717925104162
145,18.32129721808514,4.7660695386522915,4.814232135488806,9.533058939045018,29.10311665125128,27.6437140422373,11.394673964296864,3.8077193437495866
146,19.686747056241373,4.453508004171185,5.142185616545971,9.169110055692265,24.62952954941953,26.966156999880823,11.449737177710862,3.877335712026249
147,20.543322477101988,4.296639098888555,5.371738012103261,9.056058925236398,21.551825390017036,26.807604550102436,11.820474528837428,3.899387619060879
148,20.935459297401415,4.452027342048261,5.327574879262877,9.539770326881918,20.13278607290342,27.058456928304334,12.445718284815857,4.0088261787646235
149,21.22976729686532,4.846346448416348,4.937843383312227,10.590637740973229,19.83711846133213,27.650486653732813,13.045778414147224,4.245440567121378
150,21.544600250634012,5.205489743266096,4.300372826231157,11.703270239168283,20.241131720018956,28.631806347601625,13.432984763365575,4.447715060685807
151,21.549559096966195,5.302737211108443,3.648869005192523,12.266067337132652,21.248004604046464,30.102572899920844,13.696750024595172,4.419164935552579
152,20.908548641280166,5.154446171545385,3.2249122196231337,12.029785548066673,22.588466238332707,31.97193928331268,14.122372871778825,4.155490114812602
153,19.772216177255153,4.932637203262616,3.1557939176479612,11.23013376650137,23.774166622462257,33.87929343321325,14.890001540720787,3.8448675738943514
154,18.683537139920972,4.7484659067265085,3.4203284492278367,10.335772601628971,24.7774868018045,35.4859789784855,15.739081420632699,3.683047007710973
155,18.105241544293328,4.604271631664586,3.877188740460496,9.684012193259187,26.216534798728617,36.70337657698179,16.023437121456567,3.735276414093925
156,18.15253305518719,4.49448796224938,4.325438960484228,9.290921737101176,28.40832901912904,37.54796809408744,15.317288842937252,3.9287108196570366
157,18.642082788961282,4.4328143651631695,4.61944659258527,8.98433894957398,30.559685482599697,37.9158228011273,13.902837133315014,4.110900104276597
158,19.24792584659209,4.390003126650595,4.775857233950054,8.684139009005474,31.439914179841733,37.634011192467085,12.47498235897746,4.132500674880863
159,19.650256344084386,4.3019658700479875,4.916632273546341,8.472352614827866,30.81220783809888,36.724360976078586,11.46388521997879,3.9379461187624702
160,19.591377608266033,4.158358087459755,5.069458869438491,8.417898219584606,29.762558645338906,35.53646529152878,10.824768157013093,3.6083776294083627
161,18.837909969332195,4.031691141592212,5.095652505854345,8.471260559169425,29.55042218337826,34.416589734401086,10.332556915240975,3.300764804634677
162,17.314733569965135,4.0066421185821595,4.8677890058955535,8.570003205526703,30.462952107193384,33.13115679286684,9.854546731424898,3.118018772711803
163,15.37856433814568,4.101210408689762,4.441873168582453,8.732212754180773,31.812664583313982,30.912622316020354,9.453432053540237,3.031340301899845
164,13.754163927381233,4.252436308594781,3.9907866047415625,9.001365574163835,32.75530982696645,27.44818751003308,9.421957867108173,2.9442853484139584
165,13.022346105543265,4.35730188831511,3.6257010725493535,9.367144760966537,32.96930694801675,23.712052417819127,10.10590039599115,2.837138560949567
166,13.221899897108933,4.326211067495073,3.333435553986015,9.75797792079359,32.6328204477758,21.39371438505806,11.497952699449353,2.825731385260422
167,13.977875079604377,4.121648910198195,3.059863354046725,10.074702346012483,31.980781840262452,21.353640384116623,13.085738038589012,3.064214686642873
168,14.920410223176404,3.7832407572578948,2.8242682507506838,10.245358972876584,31.207809617324642,22.844068036189054,14.234685911081819,3.587636923776018
169,15.942552242820268,3.4285737490269703,2.738085061932932,10.294453531039444,30.8121023546827,24.361148554497365,14.659000828231118,4.2420190975477094
170,17.13560719988616,3.2114672938590294,2.8959130115591827,10.36245540968595,31.4856396617255,25.01281222961058,14.457081342221713,4.770160806953603
171,18.538865940722253,3.246530543640833,3.2652111586633037,10.623383984952401,33.30531769319755,24.939382777121214,13.8498882567125,4.992363772923551
172,19.97688022284232,3.5453912882714618,3.7227446139144424,11.145925840228724,35.42299724566971,24.83004364752743,13.031729116625081,4.920510611383918
173,21.20485220541066,4.001841822497175,4.1756171381053,11.79711326669154,36.86403543529151,25.354639825703103,12.21937140875348,4.703018684496173
174,22.148758497624446,4.444680521116904,4.578890236834609,12.277078221450466,37.34279949735655,26.75887917159327,11.726167655759879,4.487827744138061
175,22.78720568478398,4.737909420377632,4.841468792892373,12.297492496478368,37.13705906613914,28.55823133518583,11.8602394567882,4.346550591064279
176,22.806043379403295,4.845816488570477,4.819327263074946,11.816982665826135,36.49152852420777,29.65718486030911,12.673686267304996,4.273260604199493
177,21.717421937505527,4.811811063085931,4.469600279996271,11.147933615643577,35.367250124257055,29.113853910536257,13.872564716414765,4.209741577886039
178,19.53443780656103,4.711718045896967,3.958585929308205,10.77875953501065,33.64507065743631,27.03395085778792,15.042588057682556,4.095341300749219
179,17.129924590651,4.6439509313514105,3.5510402955622347,10.98408470680264,31.475486263146085,24.72357658429771,15.871479516934832,3.9172609690107025
180,15.66383924738506,4.719675313858356,3.401716684986256,11.556816115766706,29.501018020940425,23.84902091848288,16.133136809624208,3.7176916319975497
181,15.63437647181173,5.004099969950207,3.482271960035425,11.976586732581474,28.5988102450793,25.27440998072275,15.670531587404469,3.568136411563782
182,16.51532537675005,5.436091409848213,3.6853829058123586,11.915959922701395,29.083373480360724,28.464264643431584,14.574257163858551,3.5230944360723813
183,17.226145246270537,5.797067140707009,3.9407194081808576,11.583309485370677,30.2195496845647,31.81926174132365,13.351693996414568,3.5666680584498387
184,16.944626589726205,5.805976049123644,4.198730184521374,11.546030622428807,30.934995798014928,33.62555273298643,12.752719038108655,3.625346808203223
185,15.626117916977076,5.338617787785945,4.345369638031924,12.231712025852744,31.02526104399677,33.00333248071419,13.237970603236839,3.6569721762023546
186,13.889272371539471,4.586277698644091,4.2365257197953765,13.558186823102826,31.159256875466994,30.38036851097103,14.577781352738839,3.6897832265047388
187,12.435040982142489,3.93581239639551,3.860898625608052,14.935016456969294,31.630556666631875,27.24052949691187,16.09566196162728,3.7587560892141036
188,11.542806213829767,3.659306891610931,3.411012822338352,15.647173344335823,31.73307744386875,25.097861244612925,17.285077589669875,3.851438800040575
189,11.055588824151688,3.75798373403323,3.1479787813227142,15.4162009488058,30.73530912977388,24.307444226179523,18.028709511061944,3.935385131240616
190,10.729171856665305,4.091223843172144,3.2209562473702293,14.63040071522368,28.998431023490625,23.92106001101489,18.301365511241904,3.9883836296381716
191,10.53595176611647,4.543127664687431,3.6048104668881615,13.939246736946156,27.657265651541554,22.954515054563686,17.969933828007115,3.977956994983253
192,10.668174516850435,5.002660230228762,4.155088014634817,13.641581810971807,27.45331392040128,21.635685084951554,17.00431925487184,3.863285931623535
193,11.265958047352385,5.285559747767824,4.700640673373044,13.536121330845605,28.30756759171514,21.099467354291658,15.701523840473918,3.657541425773462
194,12.144157820671335,5.217682891700904,5.101851224909258,13.302091045301076,29.849535874748838,22.09429109262319,14.541187839074237,3.4495674860575156
195,12.898258919917822,4.794113816736456,5.263502637066477,12.894893685337571,31.82885611290837,24.420910324186046,13.815923298858651,3.316972685263396
196,13.369418188276526,4.186645327922156,5.167508432542789,12.547976857642178,33.88371428751689,27.44316232660539,13.461706051273762,3.2412591824402903
197,13.871406421408345,3.609915836827761,4.942646649098885,12.472651273426036,35.39808006066585,30.563277492742827,13.234150670969822,3.150829407339546
198,14.8094300035661,3.216336281736234,4.828920210345627,12.606915979730411,35.97700531568459,33.075825487326,12.990537531406488,3.0321422832954243
199,16.190884212010516,3.0669078882605403,4.9691807840417495,12.6304713842053,35.819168611391895,34.10545107285725,12.80026287790528,2.9565256342684956
200,17.65676394027221,3.1222029510132483,5.234599937611945,12.235283981982985,35.34685014420682,33.21984591141551,12.828507614455052,2.9879631791550296
201,18.874724809241258,3.2570874845664326,5.330999133815608,11.475858373753205,34.84037592408927,31.021124593751477,13.156655210306836,3.0970779931144197
202,19.741213684596328,3.3496373693768327,5.115296138475934,10.852519751141624,34.63962812590584,28.73387682218131,13.734845671110854,3.2023365188845587
203,20.279247769242165,3.3955238330632023,4.7531548818823985,10.9095484684078,35.164261620140486,27.173493277928067,14.469205031459182,3.281293407901202
204,20.478373648341584,3.504539267249809,4.526767838306625,11.674122160836294,36.29852662348769,26.383365218902334,15.275200863930156,3.3901337125566346
205,20.23515004946223,3.766490882166474,4.558773275809997,12.54759874845308,37.0953428473165,26.1466780336232,16.026330013209083,3.565896683080013
206,19.476170024505638,4.167221926485057,4.784001118759906,12.816093567383357,36.541170686915855,26.35970449496463,16.53340890439894,3.7596657833382268
207,18.39963452371316,4.639894535738593,5.099856418100416,12.244333327150425,34.48646270863964,26.8345957313891,16.658773697683547,3.89446564536024
208,17.47971849116785,5.106534506795052,5.432482405503773,11.133732515435863,31.583658661481913,27.140532646528936,16.41813345872381,3.961438780658766
209,17.04050273950567,5.449434404098666,5.680081277395452,9.923107666485127,28.671400663739064,26.80783107689918,15.90987154391748,4.026563138649378
210,16.895306589703736,5.550317860091837,5.72056844815188,8.899575511433191,26.597890224987736,25.561897161029748,15.22444285382735,4.15518538467168
211,16.610671234037536,5.395167622418713,5.545138884738401,8.218794773181273,26.173076621894502,23.41623718687912,14.550013995722537,4.361222083846498
212,16.059291114420816,5.075027537802508,5.322072380740022,7.957138737571067,27.552584661173427,20.723062716452198,14.270797018582835,4.613060863268685
213,15.48528239963697,4.690095356685398,5.2434481327630005,8.054474847047821,29.71005783615219,18.15578118470488,14.683519306797205,4.830459686830589
214,15.090973964960035,4.308347104392891,5.307838685835968,8.333765922051697,31.072124969545758,16.54322414561606,15.526218438827307,4.887056395589486
215,14.82455993215531,3.9844574108413684,5.30267927291586,8.65515555469165,30.870444705347765,16.544209385366734,15.998744993416196,4.7069098240440805
216,14.629371127001964,3.7594486578798962,5.024922391086655,8.981760838940875,29.665453276929917,18.21223830852755,15.426442007958101,4.371368580627557
217,14.678294610119963,3.6662718021664915,4.510394362481002,9.301636023903509,28.591914593053186,20.86109576855937,13.887424789027598,4.0641265074473525
218,15.170996178430299,3.756156072893596,4.023339983191629,9.606705539677046,28.394898888063267,23.497205400223866,12.172788964181525,3.9072667685737104
219,15.975945801190399,4.05816662972652,3.8197090195011323,9.940299102687327,29.120556635354525,25.339777742501052,11.162004992326693,3.8987642026380858
220,16.75289108545644,4.471728863053739,3.936364443758903,10.315143254510778,30.21027957849539,25.962011021817368,11.228727719381382,3.97872598822632
221,17.491513712543114,4.7682327433618745,4.188420353839953,10.571923638750645,30.741249532925572,25.352198602542554,12.18816034470904,4.087670059016414
222,18.662108777640306,4.77746890043273,4.338685448107325,10.459469483708077,30.003000285138285,24.14188160237508,13.671524224447284,4.178749402226606
223,20.641155271104193,4.55512755930916,4.282095380761845,9.900534797162695,28.15888583069258,23.47780615373928,15.417823864589906,4.239479978288493
224,23.12281743534779,4.316213289363269,4.101536674098332,9.104039671487168,26.200631988407224,24.213670566221282,17.333438252230412,4.315594754266724
225,25.158723494251337,4.217926280568982,3.966710778791325,8.415016138604141,25.088332256642826,26.145767012865115,19.43630763077547,4.470340626330068
226,25.68735273708689,4.243300720923534,3.9929338594534496,8.13097467329911,24.925430544197653,28.208550424406692,21.572057938288978,4.689368599303716
227,24.212236697644734,4.279484762598828,4.187809291399073,8.464370311794141,24.963007589454627,29.417865392247585,23.10523225676939,4.844846214019624
228,21.29554351137474,4.265633160205868,4.48315780966507,9.532311140408883,24.362790076308926,29.504818720907803,23.31430324992666,4.792690016525922
229,18.354526823130087,4.241678309218138,4.7755021158784094,11.18825770880228,22.99704920295289,28.75445996944174,22.29074273323459,4.5184723121166925
230,16.734844777679836,4.262286324226,4.948482755188728,12.861955722946112,21.610285712839712,27.587276268604416,21.018427075532486,4.180996469912734
231,16.84339310593439,4.307815782450119,4.915859835013175,13.818686595164408,21.23050255042998,26.46268720849573,20.33504021107511,4.013872814775732
232,18.10071954945835,4.31948105217067,4.701843095781699,13.75597504420669,22.302178357494753,25.96762310388648,20.160667473767,4.168799028695542
233,19.60635083704907,4.311037883907664,4.479831062688904,13.022701845746477,24.29115012535558,26.698026077803597,19.963130502574145,4.595142727075878
234,20.716978767384767,4.387605891860357,4.477319873863998,12.173906962352714,26.12196491886702,28.896579202903,19.628987088957537,5.034158753009116
235,21.07788276226025,4.620955756894757,4.788852537399087,11.49369669149642,27.00737991491644,32.21881143078101,19.540868295602632,5.184073072807809
236,20.520158220627465,4.926471925939637,5.257899250504668,10.978204585884043,26.9095728818671,35.79377102483688,19.97720594402186,4.935497067950347
237,19.23001305497561,5.099409730385961,5.563866022014959,10.550585556975179,26.32969428417198,38.46980681438847,20.708182431260454,4.448592858344124
238,17.89242342161136,4.987544912531412,5.483061222474078,10.190252117507875,25.753150714937764,39.27342936011499,21.172265471488384,3.982885399036011
239,17.34391308719742,4.640047752768181,5.098821705260077,9.948655002083752,25.3300152476033,38.01010008938094,20.947156179153858,3.670249992034835
240,17.94400045661176,4.290482738143362,4.7363795040726515,9.88902715360663,25.01002559170992,35.4892368565536,20.073581195432666,3.4835541875338696
241,19.27355293922652,4.158577012610095,4.6770147715266335,10.042559388703902,24.807105951862933,33.00634782613105,18.984319520657138,3.391443732486856
242,20.4702041337043,4.236384261487316,4.938682157514947,10.466820744591896,24.839401710649227,31.480287961942498,18.130328100142503,3.454092279778196
243,20.876454358664862,4.297353099439621,5.303791365292064,11.265816402519093,25.283201267048042,30.95321795025934,17.670807600292264,3.7308211552636354
244,20.403386798138087,4.153646706678056,5.502167463412869,12.41766032536401,26.30539312886522,30.828465624335102,17.53328884961223,4.15609572488273
245,19.42060371856275,3.882784631575639,5.377389403745399,13.610381587108211,27.76862339852113,30.55870016256256,17.670077260119847,4.563318034803603
246,18.47305614353552,3.7574733687598947,4.961628583869375,14.360272995901383,28.984266733192953,30.057505433864414,18.129611707679935,4.809442624857661
247,18.06196295833841,3.958229777594611,4.449155742327459,14.348935239419841,29.136128609247166,29.481464092787345,18.915241691458654,4.864179566753162
248,18.451599152134367,4.394616460000403,4.077501813591902,13.669883686388484,28.152069045071002,28.92560382570435,19.916230452184955,4.821900657277932
249,19.465096311088303,4.815094159520437,3.970773116566966,12.775870233674791,26.963765063293472,28.555889276189937,21.034474233159607,4.829940219895523
250,20.466247050043375,5.041735299147941,4.053237299325692,12.186049968901214,26.704844177554435,28.734775463016906,22.241755833296942,4.949276261020445
251,20.791790917115136,5.075248103491074,4.1178992117660425,12.201293079549686,27.65872920082051,29.667774498317264,23.370087585221547,5.080816004241743
252,20.369231298660434,5.024409742361382,4.013557689006219,12.833810158821091,29.049046439401206,31.04092300796415,23.982779812642853,5.077740124808563
253,19.780578548113766,4.983118360466703,3.7837703852275566,13.905174418081426,29.80550189479623,32.223539767900135,23.663876733987767,4.920143453461298
254,19.574279437520804,4.965942404317467,3.6109724837902384,15.109865440897288,29.434706333605753,32.74679946438182,22.435928583939337,4.730918278307889
255,19.61412717317169,4.93152800134491,3.6321955465518414,16.012852946147945,28.184346319735837,32.478034464390376,20.815604233714687,4.628020263719845
256,19.241019128683646,4.851054888073129,3.830045295039535,16.162491513711377,26.597041311419474,31.50269243870222,19.489776070341833,4.60239090959888
257,17.992115107241,4.756943161302692,4.101725976253946,15.392993567396488,25.180700704405446,30.07950480267598,18.921557672646237,4.538186952206486
258,16.031023977303143,4.730019417621309,4.395255717291105,14.049724175173024,24.471178379419023,28.55386815306709,19.154654162099305,4.327267422134342
259,13.9328528824045,4.820947341793505,4.742519296529069,12.793906901422773,24.986186237539265,27.043864361724594,19.856839349858852,3.960110461438031
260,12.234633190430722,4.973330462463604,5.170790974213384,12.056408736225567,26.689373226792775,25.35048432453602,20.514728231895887,3.532574555283221
261,11.237533231690787,5.05222270173279,5.637779916726463,11.671299561505345,28.51632176717129,23.32697789572549,20.703309285170093,3.2032169430728814
262,11.04902649423625,4.9629749981100195,6.072107427103839,11.123887524229186,28.890406909845268,21.18139696525486,20.309622160312585,3.1379629370289375
263,11.599227952488963,4.712493771402795,6.415609708531209,10.149270981363951,27.0575426963538,19.405203977744076,19.57206759694861,3.4297180983788547
264,12.62501812836085,4.360765877242412,6.5968075468651435,8.979599750416131,23.80618359447122,18.54107747411438,18.88873455285816,4.008368046332918
265,13.755576789746215,3.9786038397509387,6.545170748797955,8.027808765851645,20.706479813665258,18.93570920267165,18.52588038369994,4.634147392647358
266,14.607340717594614,3.6673720246569,6.2875662569905835,7.486612729902564,18.78324073511853,20.552390809796574,18.49959440939969,5.03580303353734
267,14.819307700746025,3.555726933078513,5.957556996090349,7.278939026942136,18.003076002081702,23.027419974284722,18.744435850806155,5.101714095790407
268,14.219758885117447,3.7267819290035087,5.668337089185915,7.28058082219938,17.772144656779513,25.86421289724791,19.316538536438195,4.945193571060512
269,13.127689061641316,4.14630273506671,5.438206421706983,7.477315293871479,17.599683122520304,28.5077038220122,20.34464198314541,4.783317362894303
270,12.358740571280684,4.66192421941571,5.258166326756525,7.8937606307829284,17.332211997024846,30.39695378422941,21.75140073925124,4.762877389875917
271,12.730735631258794,5.075498281984408,5.157033419073313,8.425951373066006,17.04195708199962,31.18382199326904,23.034359213260004,4.887901454923937
272,14.546597469418526,5.255905993339919,5.155863954932756,8.840168641006537,16.8834669957391,30.95653431213669,23.41733326385173,5.077749732940616
273,17.529586965058098,5.21857695551685,5.195181804566177,8.996323784159664,17.177310580826013,30.19477627632211,22.401670118395387,5.261709619565853
274,21.040217584552725,5.0855483588351476,5.153277533141768,9.043211478728612,18.601074069472425,29.49160442424572,20.305720659158105,5.415051748701037
275,24.242663931034233,4.94619643879535,4.938877794427125,9.322528719973864,21.97184780708352,29.318863341078945,18.23805994104199,5.534671065299092
276,26.383679160438387,4.761036587451696,4.555271337534917,10.051831790153027,27.41361876125589,29.931858751812733,17.433315726113683,5.617815938248426
277,27.259812515782663,4.428891832517545,4.104313224334505,11.103149976895523,33.70793339241695,31.2351479930251,18.43726447341406,5.652908074259889
278,27.251289984974385,3.952117875497356,3.7572188702437552,12.104398641811464,38.806285569465416,32.671660550845154,20.725841515672727,5.60224372930466
279,26.697687173493925,3.4994954001197653,3.690222460652829,12.780784136011018,41.25542293249713,33.49741947218797,23.07896351091077,5.414675050531699
280,25.5395106387234,3.2817583555757457,4.003446227489064,13.229647505524543,41.180877654262204,33.283798801586244,24.453707779281977,5.100941555014889
281,23.79835473784856,3.377588034249397,4.689796710124959,13.857135944157736,39.942994867840305,32.11539516062312,24.544146936169305,4.8006818220048775
282,22.00832092543703,3.6791788962680165,5.653154097867041,14.993305573510955,38.930485831322756,30.426494605268246,23.57278414995441,4.746537284503795
283,20.826077431869745,3.9927546943291192,6.707061353704182,16.54354557340745,38.64272626006665,28.660819295246586,21.83458896477213,5.130969590326595
284,20.45873744127873,4.190120649454366,7.573953770458321,18.058529190297726,38.68590941603606,26.931598157401766,19.68714329581027,5.9691351086257445
285,20.701251598864744,4.263358046331517,7.985286470973584,19.12689961223223,38.36143289361057,25.118348209194853,17.772897427405752,7.056462746222256
286,21.362027840267586,4.2479839381499644,7.84372729463114,19.60161746180099,37.17752809873549,23.46240124438519,16.853513932856355,8.05059485900086
287,22.491516359519622,4.142136067528435,7.270482027489731,19.5452580561458,35.122941715387086,22.868083381754783,17.342947483639428,8.619133668217202
288,24.201242217831936,3.939339643102595,6.491327948445251,19.193769931544846,32.88217761219137,24.335847621339465,19.1409156962015,8.579874580292504
289,26.252241957890973,3.721408236157634,5.696901115632993,18.91502255776826,31.670018958046764,28.065093639273574,21.854059446606854,7.992222576049857
290,27.86686813326721,3.6670556800946708,4.998802875338104,18.905798464729124,32.362002043745,33.236033428740654,24.95949572079497,7.144621975071896
291,28.124400918562827,3.91711758705694,4.46446398700657,18.90607859244279,34.674533895177944,38.611783407952274,27.72891083667224,6.3913991886195545
292,26.685194060918768,4.403798909733429,4.141887817203754,18.451305457936783,37.3458592271823,43.152555350565855,29.24802661459683,5.946308786346296
293,24.11018969942601,4.848267227220786,4.035041340590597,17.407077519330972,38.95302893992097,46.0575079820003,28.81663084398936,5.807024366086356
294,21.430109729605554,4.993397871747739,4.0787097099191065,16.072195050151755,38.5077409156704,46.60702613573458,26.45031147525463,5.814524887817178
295,19.36684190358509,4.8381261361145125,4.165012941442358,14.816452388564436,35.90765510079458,44.36604106045662,22.93486472324303,5.750239249192821
296,17.90553516537691,4.590029888658844,4.208459137616303,13.807459054323958,32.27106806867729,39.637205792663835,19.362236556533,5.461376501992388
297,16.602733555172797,4.418520398002599,4.205044942951387,13.076973063106678,29.342452624753953,33.627352732637675,16.581779173105673,4.989186992769277
298,15.248229349697674,4.341815258956129,4.243942712818067,12.694251878212125,28.006704768435984,28.021140580265673,14.95201824638758,4.5721029925484755
299,14.094773800947376,4.329666374371373,4.450226555814322,12.730746321693292,27.562037969174582,24.179295312777818,14.415131599804653,4.467778613128451
300,13.455566129002062,4.390837570482181,4.879576860488794,13.028594010279148,26.746681418632036,22.653650305918717,14.765786294043469,4.743975310663872
301,13.294963751853963,4.525489668974311,5.438519017757169,13.178857478289501,25.283282180557883,23.39145226326913,15.883149509711004,5.239836391973939
302,13.337131363584106,4.662125451417888,5.903780576286847,12.939764024562582,24.137335454985394,26.147690014736405,17.704673888805008,5.7075224891120016
303,13.383073191921664,4.683673139444881,6.061138279619961,12.59917147729442,24.43095277978628,30.480240287193276,19.97197999942392,5.966590845039639
304,13.330654409872917,4.514288791019135,5.87281369000157,12.696818616641727,26.360088585439524,35.479700480033195,22.143989043351098,5.966024568697275
305,13.08814446960288,4.194295242043151,5.51813534070502,13.437246772742593,29.036326056218403,39.89676963828205,23.751559873171615,5.7814211629125545
306,12.7126804196022,3.884929979619532,5.2504234441778035,14.597093971377944,31.159998051253254,42.811578359651485,24.886542018224965,5.574845677997683
307,12.460155155213428,3.7626213872336596,5.198753178909062,15.959444305766127,31.908048706515206,44.06017688462066,26.10625869444782,5.493691280859984
308,12.471137838934663,3.8567042421018636,5.297611415073385,17.51864840322026,31.366047583425704,43.829801812876525,27.64088353529487,5.558272487301869
309,12.601378631693116,3.995223257441807,5.379091857583532,19.144955960418734,30.207283172460706,42.11086136608813,28.83355335306433,5.650018388586602
310,12.772032318096251,3.9506078625572303,5.31089027304654,20.332787766804397,29.03831298327576,39.01765133258182,28.605831751760597,5.625808182389046
311,13.236020079787725,3.6612719332145653,5.061188944209729,20.582658511451804,28.06114708282759,35.49800203222344,26.44910793683661,5.467331049752274
312,14.198434556394936,3.3030251964949415,4.66704057105097,19.97348145795366,27.227964227220497,33.08187841231807,22.916968950438502,5.3182044084575715
313,15.337200689405211,3.1374465403439644,4.180297859789521,19.124653348017716,26.55562609550853,32.56778525950829,19.26544327669572,5.3385543096535235
314,16.055079898254363,3.297803210805029,3.6662344013643215,18.60072943255411,26.26731095852996,33.119197217331696,16.624278581845722,5.536106925708578
315,16.19210549257951,3.721685920422619,3.228313776955644,18.535903199145544,26.598264982594074,32.993957304543045,15.335563570824327,5.7928868399975855
316,16.2278056225629,4.254834973773104,2.9838674405504575,18.866123851922257,27.512684388299505,31.29890018775182,14.96725328154709,6.028622923623846
317,16.76116858329166,4.757242284221508,2.9913170659631234,19.6792657239086,28.746250116791842,28.95689047772186,14.881245147317564,6.265239773550302
318,17.95260789485101,5.099656103309939,3.1908335124168907,21.056496942144893,30.021076870272907,27.95811310033845,14.749168173721559,6.539069138429308
319,19.473881480676045,5.162596500630366,3.410997067104801,22.533183328294665,30.937126722923296,29.669026914544272,14.588545797905518,6.819574411335159
320,20.820465699499998,4.944615469901507,3.4733355563713615,23.090529526955887,30.922188944789102,33.61751301209535,14.497305844582309,7.030035118243
321,21.55844628986184,4.644326314710239,3.3498593865713078,22.101547123048697,29.942653649404072,37.67689287712232,14.499405305144027,7.111060341544849
322,21.389100538962055,4.5317557273615465,3.2209550645178218,20.133981872163915,29.132433456751045,39.52841596167666,14.645930504688128,7.0465670218870375
323,20.268641441719573,4.698887273258843,3.334954167098657,18.430065600303415,29.908362648031048,38.31976242246079,15.15667284406654,6.823704048795479
324,18.582449764601918,4.974225737715628,3.7904030259464423,17.721112030227843,32.30419906809613,35.168473417219715,16.315671268096047,6.396879298225251
325,16.994636745615225,5.093383368346638,4.444100010711673,17.82039880393421,34.668154802183466,32.07155079050132,18.06561297645708,5.753917830947991
326,15.941624408738747,4.931542160353111,5.0182764378002025,18.107127875561417,35.100626109146255,30.31478789988195,19.674507169505628,5.026086386731626
327,15.343294308687696,4.569032605938519,5.309773387803814,18.09241534352419,32.99019446547155,29.8655058386257,20.06937311980251,4.440863350813784
328,14.864519307226121,4.155746167202405,5.3120498274789565,17.688950500084612,29.31005669059097,30.00387934379322,18.824483526356083,4.114178650843582
329,14.342029587997594,3.759319732552167,5.1451307493164276,17.207863062942504,25.779271819952733,30.156740686886906,16.76189308932006,3.9455480526897513
330,13.963185216539696,3.3750934941000073,4.904605872241735,17.041777093719727,23.76184147695035,30.17940865305787,15.320896548712692,3.7588328871303003
331,14.181771713406723,3.0307776516744145,4.612705985602791,17.214103364122963,23.560610782429155,30.17394783640745,15.288981344724114,3.4986195877616417
332,15.397693069338889,2.7979352040590766,4.2782235392095735,17.294207912157994,24.382093624186744,30.18782897074043,16.182439967034583,3.251125834712069
333,17.461381301718376,2.7063298441489083,3.9320644479002143,16.808854723773553,24.967277645563485,30.10074429581767,16.793542947656853,3.1143406231335846
334,19.463181248583,2.711919590137668,3.605278024034833,15.691307347634986,24.546682051916978,29.831480170965104,16.360513988261015,3.1143805719882707
335,20.28467142202975,2.753035751070262,3.338008542055965,14.308848580472997,23.36342196407518,29.50176348321178,15.301543498645662,3.239897267549318
336,19.55351655166225,2.793327355819245,3.216480992730322,13.14480625590689,22.32650744560251,29.21109083112461,14.809159019244383,3.4849229181640093
337,18.026538257922176,2.829201197760438,3.3339131803462005,12.509807331991645,22.190057667037344,28.8543894484432,15.74036959789564,3.840769975461801
338,16.96814868198087,2.904680023683719,3.6931496675577637,12.493824343510939,23.04916677687795,28.398254538579444,17.95403372808515,4.292240141539361
339,17.149913314385547,3.0984337986446886,4.1879265874459755,13.097664506961284,24.46561877332197,28.201264488309103,20.60131160031992,4.824917840495284
340,18.3551420301332,3.447036988316582,4.679687011716949,14.33669132190524,25.951755208416074,28.81651621251415,22.78946845112067,5.4117451752721735
341,19.65326300201939,3.889535252319991,5.049347486222514,16.14007699916684,27.358923964496775,30.457663799426285,23.93810228829745,6.007848737358666
342,20.067805606603287,4.320287716108177,5.196945960836656,18.0875685519221,28.802020177723062,32.69885692114733,23.921107921242623,6.560144815468237
343,19.149431797210255,4.678007398323238,5.068382187234799,19.352011341399354,30.204186228328155,34.677260108071685,23.2656806467377,6.978288495065658
344,17.2173249095609,4.947942641633018,4.701920229985508,19.151041278559457,31.14138462688285,35.58723700883079,23.03640586477607,7.118145096006771
345,15.2057775037199,5.083806870985439,4.2126384681799145,17.37149228878923,31.299621028361436,35.0322650000392,23.9556474630178,6.871397914967706
346,14.154278908275174,4.983595410194695,3.7241395192401345,14.657062683793841,30.817459807108065,33.118122824749435,25.4776649811276,6.276462819444582
347,14.59313124253556,4.588617456874422,3.328270001810078,11.858054384132789,30.02035023172038,30.43130135113852,26.078476911277406,5.510308775159791
348,16.22529079118305,3.9923165659481423,3.092375943684564,9.498907177822327,29.097601691490205,27.839599681782715,24.69229497627801,4.803255295553556
349,18.10664029508491,3.4056595713230715,3.0651981718569172,7.7554707564570915,28.146707828620755,25.94815372546211,21.759076002365866,4.380914649183515
350,19.215613857622714,3.0011641071490462,3.2517425497327146,6.725773815964278,27.319441472254837,24.707872158974336,18.813965849428126,4.410910844066242
351,19.046103519322035,2.8030306694966596,3.5878269411678243,6.549062183010621,26.917372045082704,23.772541612478946,17.200682912291203,4.915905315059889
352,17.79797168346625,2.721487890238439,3.957755972288223,7.242820138714755,27.363839108706898,23.10184518352753,17.199557259529055,5.728132275642331
353,16.17326322283315,2.6698242697671684,4.251796396873081,8.438760261877988,28.66925637847869,22.869532881504334,18.12094724789414,6.545357640507145
354,15.045176792972281,2.6322862113600514,4.408127894559557,9.37448014404442,29.9032780153318,22.93588964637458,18.937914010107335,7.053406444532669
