time,emg1,emg2,emg3,emg4,emg5,emg6,emg7,emg8
0,-17,2,3,-12,-30,6,-5,-5
1,-6,0,0,26,22,-22,-1,-7
2,11,3,2,-33,-36,-33,10,3
3,11,3,2,-33,-36,-33,10,3
4,8,3,-10,16,23,-10,22,0
5,8,3,-10,16,23,-10,22,0
6,28,-3,-3,-46,-32,-29,-2,-3
7,0,1,7,4,-2,3,-12,-6
8,-11,2,-3,20,-10,-23,-17,-9
9,48,7,4,-19,-49,-12,-13,9
10,48,7,4,-19,-49,-12,-13,9
11,-3,-3,-3,1,0,4,5,-3
12,-3,-3,-3,1,0,4,5,-3
13,-3,-3,-3,1,0,4,5,-3
14,11,-13,1,-22,-46,-23,-13,0
15,11,-13,1,-22,-46,-23,-13,0
16,-26,7,8,4,23,10,-43,-4
17,-26,7,8,4,23,10,-43,-4
18,-26,7,8,4,23,10,-43,-4
19,34,5,-4,14,-3,-18,-1,3
20,34,5,-4,14,-3,-18,-1,3
21,-63,-8,-4,8,26,14,38,-3
22,-11,-9,-5,-8,4,-7,3,-8
23,3,4,-5,1,16,28,-16,2
24,3,4,-5,1,16,28,-16,2
25,16,1,-3,16,-3,1,6,10
26,-23,3,-2,-15,-19,25,-6,-5
27,-23,3,-2,-15,-19,25,-6,-5
28,-3,2,-1,14,-6,2,-4,0
29,-3,2,-1,14,-6,2,-4,0
30,9,-15,0,-12,-23,-37,-4,0
31,16,-1,2,-12,-3,-8,8,0
32,16,-1,2,-12,-3,-8,8,0
33,16,-1,2,-12,-3,-8,8,0
34,16,-1,2,-12,-3,-8,8,0
35,-29,-1,-1,-9,-12,-3,11,1
36,-2,0,6,8,-4,33,-3,1
37,-2,0,6,8,-4,33,-3,1
38,-11,-8,-7,8,-14,-38,0,3
39,-11,-8,-7,8,-14,-38,0,3
40,0,-5,6,-5,-8,-36,-37,2
41,0,-5,6,-5,-8,-36,-37,2
42,14,2,7,-35,-11,-33,-23,1
43,14,2,7,-35,-11,-33,-23,1
44,14,2,7,-35,-11,-33,-23,1
45,14,2,7,-35,-11,-33,-23,1
46,7,-1,4,14,31,14,23,-3
47,7,-1,4,14,31,14,23,-3
48,30,10,-1,36,69,111,28,10
49,30,10,-1,36,69,111,28,10
50,-6,-5,-7,-15,-7,-22,15,0
51,-6,-5,-7,-15,-7,-22,15,0
52,-6,-5,-7,-15,-7,-22,15,0
53,6,3,0,5,-44,-14,9,-1
54,-21,-8,2,29,5,41,16,-6
55,-21,-8,2,29,5,41,16,-6
56,-21,-8,2,29,5,41,16,-6
57,5,0,-3,3,-13,-15,-17,-4
58,5,0,-3,3,-13,-15,-17,-4
59,14,-11,3,-7,-8,-96,-75,4
60,-15,3,0,-19,7,7,-6,5
61,-15,3,0,-19,7,7,-6,5
62,-15,3,0,-19,7,7,-6,5
63,-19,0,-7,-17,-40,14,-12,-9
64,-19,0,-7,-17,-40,14,-12,-9
65,11,-8,-4,-11,-19,-3,-10,-6
66,11,-8,-4,-11,-19,-3,-10,-6
67,-11,1,12,8,-4,-33,-18,-5
68,-11,1,12,8,-4,-33,-18,-5
69,-38,-4,2,-16,-3,-2,-11,0
70,-38,-4,2,-16,-3,-2,-11,0
71,-38,-4,2,-16,-3,-2,-11,0
72,-27,-10,-7,10,17,-27,-5,-7
73,-27,-10,-7,10,17,-27,-5,-7
74,-27,-10,-7,10,17,-27,-5,-7
75,45,2,-4,-5,-30,-42,26,1
76,45,2,-4,-5,-30,-42,26,1
77,22,1,3,-19,-39,40,21,4
78,22,1,3,-19,-39,40,21,4
79,22,1,3,-19,-39,40,21,4
80,2,0,-1,19,39,25,-3,2
81,2,0,-1,19,39,25,-3,2
82,19,-5,1,-23,-16,16,-18,-5
83,19,-5,1,-23,-16,16,-18,-5
84,-18,5,-10,6,6,-15,20,1
85,-18,5,-10,6,6,-15,20,1
86,-21,-3,0,11,29,-14,6,-3
87,-21,-3,0,11,29,-14,6,-3
88,13,-4,1,-8,-24,58,8,0
89,13,-4,1,-8,-24,58,8,0
90,49,9,4,0,8,-40,18,7
91,-5,0,-7,-20,-17,4,-9,-3
92,8,1,1,64,63,41,36,1
93,9,-2,-3,-16,-7,3,0,0
94,-16,-8,-11,15,-4,-57,12,3
95,22,1,-1,-3,-5,8,-8,-2
96,-11,1,0,9,-3,-2,9,0
97,-11,1,0,9,-3,-2,9,0
98,-11,1,0,9,-3,-2,9,0
99,15,1,-1,6,-7,-15,30,7
100,15,1,-1,6,-7,-15,30,7
101,55,3,-5,3,24,52,21,1
102,-49,-10,-3,9,18,-8,-39,-11
103,-49,-10,-3,9,18,-8,-39,-11
104,13,-5,-1,-2,2,45,4,-5
105,13,-5,-1,-2,2,45,4,-5
106,29,0,-4,-19,-25,-78,-41,0
107,29,0,-4,-19,-25,-78,-41,0
108,17,2,0,-6,6,-32,-2,4
109,64,2,4,-11,-31,9,9,4
110,1,-1,-5,-4,-79,9,0,2
111,1,-1,-5,-4,-79,9,0,2
112,7,-6,-5,0,0,-29,9,-1
113,-18,-13,-5,14,62,27,-5,1
114,-18,-13,-5,14,62,27,-5,1
115,12,8,4,11,48,-35,2,1
116,12,8,4,11,48,-35,2,1
117,-10,-4,-4,-10,-35,39,-16,-10
118,-10,-4,-4,-10,-35,39,-16,-10
119,9,0,6,-18,28,7,2,3
120,4,3,-4,10,-37,6,-22,-2
121,4,3,-4,10,-37,6,-22,-2
122,21,3,-2,11,60,33,-5,2
123,21,3,-2,11,60,33,-5,2
124,-79,2,7,3,-33,12,4,-3
125,10,5,-7,-2,-33,26,10,-1
126,10,5,-7,-2,-33,26,10,-1
127,17,0,-4,5,30,-46,17,1
128,17,0,-4,5,30,-46,17,1
129,-38,-2,-5,-18,-36,-31,0,-3
130,-10,2,2,11,42,-7,-18,-4
131,-11,-5,2,4,29,-10,18,-3
132,-4,-5,3,-22,-55,-23,-22,1
133,-4,-5,3,-22,-55,-23,-22,1
134,26,-4,5,1,3,-11,-10,0
135,-63,-2,3,6,-38,2,10,-4
136,10,2,-1,4,5,19,6,0
137,19,-2,-8,2,5,5,-17,5
138,19,-2,-8,2,5,5,-17,5
139,19,-2,-8,2,5,5,-17,5
140,11,-4,-3,14,80,23,11,-2
141,25,5,2,7,-13,-44,-8,-7
142,25,5,2,7,-13,-44,-8,-7
143,12,-3,2,6,23,45,-6,-2
144,12,-3,2,6,23,45,-6,-2
145,12,-3,2,6,23,45,-6,-2
146,-55,-5,-5,11,34,60,26,-12
147,15,-6,9,2,23,75,18,-2
148,24,3,2,-16,-97,-5,-15,2
149,24,3,2,-16,-97,-5,-15,2
150,-16,8,6,-2,5,12,2,2
151,-16,8,6,-2,5,12,2,2
152,11,-7,-2,-8,-7,-60,13,-6
153,-4,0,5,1,6,-16,2,-3
154,9,4,10,-16,-34,15,3,7
155,9,4,10,-16,-34,15,3,7
156,-11,0,-3,15,24,-3,-9,4
157,15,6,-3,10,44,0,-12,2
158,-42,-2,-2,-5,30,9,-17,-1
159,-19,9,-1,-9,-13,-18,-7,4
160,-63,-5,-16,5,20,-23,-7,-7
161,40,-2,-4,-9,18,19,3,7
162,40,-2,-4,-9,18,19,3,7
163,5,-11,-4,10,19,43,-18,3
164,5,-11,-4,10,19,43,-18,3
165,5,-11,-4,10,19,43,-18,3
166,7,-7,9,2,16,-41,-1,2
167,27,1,-9,-6,-46,2,3,-5
168,-16,-7,0,-7,-41,18,21,-3
169,-16,-7,0,-7,-41,18,21,-3
170,-30,-4,-10,2,5,-14,12,-8
171,-30,-4,-10,2,5,-14,12,-8
172,19,2,4,-15,-30,16,-20,4
173,-24,-6,0,15,24,41,10,-13
174,-4,4,-2,-28,-91,-14,43,7
175,-11,-4,-8,-2,-4,-63,-9,3
176,26,1,-2,-10,-49,7,-42,-2
177,26,1,-2,-10,-49,7,-42,-2
178,-6,0,1,2,-12,1,-5,1
179,-1,6,8,4,13,8,-4,1
180,55,-1,7,6,25,45,13,-2
181,16,2,-2,-12,-53,-80,28,6
182,16,2,-2,-12,-53,-80,28,6
183,-11,-8,10,-22,-3,-12,-28,-8
184,-57,3,-1,8,56,-52,-5,-4
185,-15,3,-8,0,15,39,-2,2
186,11,1,1,-1,17,-16,-18,-3
187,-71,-7,-3,1,9,1,9,-6
188,-3,-3,-1,-9,-6,5,6,-3
189,23,1,-6,-6,-72,-67,-42,-2
190,10,2,-3,18,47,-41,-19,-1
191,10,2,-3,18,47,-41,-19,-1
192,22,4,1,8,9,12,-9,3
193,22,4,1,8,9,12,-9,3
194,-9,-1,-4,-8,-12,11,5,-3
195,16,2,1,-4,-9,17,-5,5
196,9,8,4,-6,-3,12,10,6
197,9,8,4,-6,-3,12,10,6
198,-10,-4,-10,0,12,19,-15,-2
199,-10,-4,-10,0,12,19,-15,-2
200,-52,-10,-4,3,-13,-62,-8,-7
201,1,1,-7,-7,11,35,9,4
202,10,12,5,-13,-20,3,8,1
203,3,10,2,-14,-52,-31,-1,-9
204,3,10,2,-14,-52,-31,-1,-9
205,3,10,2,-14,-52,-31,-1,-9
206,-12,-7,-3,1,7,16,1,4
207,-12,-7,-3,1,7,16,1,4
208,-2,-1,7,-4,-8,12,-3,1
209,15,-2,5,3,5,18,1,2
210,-31,-6,0,-1,48,17,5,-4
211,-31,-6,0,-1,48,17,5,-4
212,-31,-6,0,-1,48,17,5,-4
213,-31,-6,0,-1,48,17,5,-4
214,-1,-7,6,3,-1,34,14,-2
215,-39,-2,4,2,39,17,-25,-2
216,-44,-9,-4,-17,-22,-25,5,-3
217,53,8,4,-4,-15,28,6,-1
218,53,8,4,-4,-15,28,6,-1
219,-2,-1,-10,12,19,-23,14,5
220,-2,-1,-10,12,19,-23,14,5
221,9,-4,0,-12,2,-29,-25,-8
222,9,-4,0,-12,2,-29,-25,-8
223,15,0,-7,8,11,11,5,4
224,15,0,-7,8,11,11,5,4
225,0,-3,0,6,8,29,19,2
226,0,-3,0,6,8,29,19,2
227,-17,-4,-1,-6,-26,-2,0,-2
228,-40,-5,-3,2,12,-7,-17,-4
229,4,5,-1,-17,-24,-3,-40,2
230,4,5,-1,-17,-24,-3,-40,2
231,4,7,0,-1,-10,-36,7,0
232,4,7,0,-1,-10,-36,7,0
233,55,0,-5,-3,-5,-9,-1,6
234,9,-5,-4,5,-13,-2,8,-1
235,9,-5,-4,5,-13,-2,8,-1
236,17,-1,7,9,30,7,16,7
237,17,-1,7,9,30,7,16,7
238,-35,-2,-6,-10,-26,-3,-6,1
239,-35,-2,-6,-10,-26,-3,-6,1
240,19,0,1,12,15,-22,6,-1
241,19,0,1,12,15,-22,6,-1
242,-34,-8,-2,1,5,15,12,0
243,-34,-8,-2,1,5,15,12,0
244,-34,-8,-2,1,5,15,12,0
245,0,6,1,-2,-11,0,-3,2
246,-25,-2,0,-7,-11,17,8,-1
247,-25,-2,0,-7,-11,17,8,-1
248,14,-8,-2,-29,-65,-5,-3,-2
249,14,-8,-2,-29,-65,-5,-3,-2
250,-20,-2,6,12,33,0,-4,-5
251,-20,-2,6,12,33,0,-4,-5
252,18,0,-4,-13,7,-24,-27,-5
253,18,0,-4,-13,7,-24,-27,-5
254,-11,1,-2,8,-7,-9,26,-2
255,-11,1,-2,8,-7,-9,26,-2
256,-48,-6,-7,0,-10,23,28,1
257,8,-2,1,-4,-16,31,8,0
258,6,-11,-6,-1,23,5,10,-1
259,6,-11,-6,-1,23,5,10,-1
260,36,-10,-3,13,45,0,-31,-5
261,36,-10,-3,13,45,0,-31,-5
262,11,4,1,1,22,37,-15,1
263,16,13,-1,9,11,-16,3,4
264,16,13,-1,9,11,-16,3,4
265,-37,-3,-4,3,6,-17,-12,-7
266,-37,-3,-4,3,6,-17,-12,-7
267,-4,0,0,-4,-16,16,12,3
268,65,2,-1,-1,4,53,10,-2
269,-14,0,2,-13,-32,8,9,5
270,-14,0,2,-13,-32,8,9,5
271,-10,-1,2,8,17,2,-14,-2
272,-10,-1,2,8,17,2,-14,-2
273,18,0,-1,-6,-4,-53,-5,1
274,-29,0,3,11,20,-19,-8,-4
275,-5,-5,0,2,-8,13,-6,1
276,-5,-5,0,2,-8,13,-6,1
277,19,1,1,4,6,-35,-19,-3
278,-16,-2,-3,0,19,35,10,1
279,16,1,1,-3,-10,-33,-3,5
280,11,5,8,-2,-7,-23,14,-1
281,-44,-3,-1,-14,-50,-13,-21,-3
282,-44,-3,-1,-14,-50,-13,-21,-3
283,5,4,0,16,39,-7,41,-2
284,-19,-3,-4,-14,-21,-23,-24,5
285,0,5,1,0,23,-9,10,-6
286,0,5,1,0,23,-9,10,-6
287,38,2,1,15,31,14,-8,-3
288,38,2,1,15,31,14,-8,-3
289,22,-5,-1,-24,-47,-6,-21,-1
290,-3,-2,-1,-1,26,-27,-16,-10
291,-12,-8,-5,-13,-53,-39,-18,-2
292,-12,-8,-5,-13,-53,-39,-18,-2
293,3,1,-7,6,10,40,5,1
294,3,1,-7,6,10,40,5,1
295,13,0,-5,15,10,25,8,3
296,13,0,-5,15,10,25,8,3
297,13,0,-5,15,10,25,8,3
298,-7,5,-7,11,90,5,-13,-1
299,17,0,2,1,13,-31,26,-4
300,17,0,2,1,13,-31,26,-4
301,17,0,2,1,13,-31,26,-4
302,-9,2,1,-9,-47,-25,4,3
303,-9,2,1,-9,-47,-25,4,3
304,-9,2,1,-9,-47,-25,4,3
305,5,-13,-3,2,16,37,-5,2
306,24,-4,5,9,42,-5,-5,0
307,-15,-3,-3,-1,-22,26,19,0
308,-10,-5,3,-13,-21,5,-11,-1
309,-10,-5,3,-13,-21,5,-11,-1
310,6,3,-1,-1,17,-19,-9,6
311,24,-5,-1,-4,-4,-17,5,-3
312,2,-3,3,-6,-51,65,-4,4
313,2,-3,3,-6,-51,65,-4,4
314,-18,-1,1,9,27,-6,-15,-1
315,-18,-1,1,9,27,-6,-15,-1
316,2,-3,-1,-5,-9,-1,21,3
317,16,-7,1,-10,-25,-15,-34,2
318,18,5,1,14,56,-16,12,-5
319,18,5,1,14,56,-16,12,-5
320,-2,3,-7,12,32,-2,11,-2
321,-2,3,-7,12,32,-2,11,-2
322,-2,3,-7,12,32,-2,11,-2
323,-2,4,-2,4,-3,-3,-11,-13
324,-7,-13,-7,-18,-44,-7,-19,-2
325,-7,-13,-7,-18,-44,-7,-19,-2
326,11,-6,-4,6,21,-17,12,1
327,2,0,-9,0,-14,-17,-37,1
328,2,0,-9,0,-14,-17,-37,1
329,-1,4,1,-9,-56,-11,4,-2
330,-20,2,3,-1,-4,-9,6,-2
331,-29,-4,2,-1,-11,-17,29,4
332,-29,-4,2,-1,-11,-17,29,4
333,19,-2,6,-5,-10,-5,0,4
334,-10,-4,3,-6,-3,30,-6,4
335,-9,-7,-5,-10,-12,3,23,-1
336,3,0,-2,-9,-12,74,-1,-1
337,3,0,-2,-9,-12,74,-1,-1
338,3,0,-2,-9,-12,74,-1,-1
339,-36,-7,-8,-5,9,-29,5,-7
340,-36,-7,-8,-5,9,-29,5,-7
341,-8,1,6,3,11,-9,12,-3
342,-8,1,6,3,11,-9,12,-3
343,-37,-5,3,-15,-56,-112,-51,-5
344,-37,-5,3,-15,-56,-112,-51,-5
345,-37,-5,3,-15,-56,-112,-51,-5
346,21,2,1,3,11,19,9,1
347,-5,-1,2,8,37,-2,6,-6
348,-5,-1,2,8,37,-2,6,-6
349,4,-2,1,12,41,16,-25,-3
350,-1,-1,3,6,6,14,1,-1
351,-1,-1,3,6,6,14,1,-1
352,10,1,9,13,19,9,21,-3
353,10,1,9,13,19,9,21,-3
354,1,-3,-3,-5,0,-39,6,-4
355,1,-3,-3,-5,0,-39,6,-4
356,2,1,5,-1,10,26,21,6
357,2,1,5,-1,10,26,21,6
358,12,-2,-2,6,13,20,-13,-6
359,2,-5,4,3,-1,3,-2,-6
360,8,2,1,-2,-15,0,1,3
361,8,2,1,-2,-15,0,1,3
362,-10,0,-1,-12,4,8,-9,2
363,-10,0,-1,-12,4,8,-9,2
364,-10,0,-1,-12,4,8,-9,2
365,-17,-8,-6,7,-37,3,2,-19
366,3,-10,0,-13,-67,-54,-15,0
367,70,3,-1,7,14,0,-3,6
368,-13,-1,-2,-8,-19,10,0,4
369,-13,-1,-2,-8,-19,10,0,4
370,-12,2,1,0,21,-31,-35,12
371,-12,2,1,0,21,-31,-35,12
372,9,1,-5,3,15,2,19,-2
373,9,1,-5,3,15,2,19,-2
374,25,2,3,6,23,-2,-15,6
375,-5,0,-2,1,34,7,6,4
376,-5,0,-2,1,34,7,6,4
377,-8,-8,0,6,-7,-39,14,1
378,-29,7,-6,-12,-96,-32,-24,-9
379,-29,7,-6,-12,-96,-32,-24,-9
380,10,-1,2,1,32,11,4,1
381,10,-1,2,1,32,11,4,1
382,7,0,1,-3,-5,28,9,8
383,7,0,1,-3,-5,28,9,8
384,7,0,1,-3,-5,28,9,8
385,-9,1,-3,4,39,15,-5,-7
386,-1,1,2,20,38,25,12,-3
387,-1,1,2,20,38,25,12,-3
388,-1,1,2,20,38,25,12,-3
389,-43,-7,-1,9,63,26,12,-14
390,26,-2,1,-14,-77,-31,-6,-2
391,-5,1,-2,-12,-14,14,-22,11
392,-5,1,-2,-12,-14,14,-22,11
393,-23,-3,-7,12,24,37,33,-3
394,-23,-3,-7,12,24,37,33,-3
395,-16,-1,0,-1,13,26,12,5
396,-16,-1,0,-1,13,26,12,5
397,5,-3,2,-6,7,7,-3,-2
398,29,4,-3,-4,-1,13,2,1
399,-14,-6,-7,-20,-29,8,-11,-2
400,-14,-6,-7,-20,-29,8,-11,-2
401,-19,-2,-1,-4,-43,-26,-32,-14
402,-1,-5,-1,-1,-23,13,22,4
403,-1,-5,-1,-1,-23,13,22,4
404,18,1,6,1,5,-13,6,0
405,5,-1,-1,-6,-16,-8,-17,-6
406,5,-1,-1,-6,-16,-8,-17,-6
407,17,-1,-1,-26,-87,-61,22,6
408,17,-1,-1,-26,-87,-61,22,6
409,0,-3,4,20,37,14,-13,-6
410,0,-3,4,20,37,14,-13,-6
411,-27,-3,-14,-14,-18,-10,-3,-5
412,-27,-3,-14,-14,-18,-10,-3,-5
413,45,-4,-6,-3,-34,-26,4,-20
414,45,-4,-6,-3,-34,-26,4,-20
415,-41,-3,0,3,6,-10,-11,-6
416,-41,-3,0,3,6,-10,-11,-6
417,49,2,1,-12,-32,-7,-14,-1
418,-4,0,6,-11,-12,-7,-50,0
419,-1,-1,-1,11,17,22,14,-8
420,-1,-1,-1,11,17,22,14,-8
421,-1,-1,-1,11,17,22,14,-8
422,16,7,0,4,24,51,-6,3
423,31,5,-2,14,40,9,0,-4
424,31,5,-2,14,40,9,0,-4
425,11,-1,-1,0,-6,-33,13,4
426,-19,-7,-6,-15,10,-5,3,-1
427,-5,6,2,2,5,-4,8,-4
428,2,-7,-4,-4,8,73,7,8
429,0,-1,1,7,13,-20,5,-1
430,-19,0,-6,11,15,61,-6,2
431,1,-13,0,4,-3,8,9,-2
432,1,-13,0,4,-3,8,9,-2
433,20,5,-1,-12,-22,5,-14,-5
434,-38,-7,1,4,-10,-12,-13,-9
435,-38,-7,1,4,-10,-12,-13,-9
436,-47,-3,-2,-17,-40,10,-23,-6
437,-37,-4,4,-4,-1,-10,5,-1
438,6,1,-12,4,12,-12,-17,3
439,6,1,-12,4,12,-12,-17,3
440,24,-4,0,4,-2,41,2,-1
441,24,-4,0,4,-2,41,2,-1
442,18,2,1,-16,-105,2,0,6
443,18,2,1,-16,-105,2,0,6
444,-13,-2,-2,6,5,-27,-7,-7
445,-13,-2,-2,6,5,-27,-7,-7
446,12,-6,2,-2,29,-24,17,-1
447,-5,2,1,-11,-58,-22,-27,5
448,-8,4,6,-1,39,0,2,10
449,-8,4,6,-1,39,0,2,10
450,-11,-1,-1,-8,3,8,9,18
451,-11,-1,-1,-8,3,8,9,18
452,-11,-1,-1,-8,3,8,9,18
453,-6,1,12,10,-2,11,5,-25
454,-57,-8,-2,-1,3,-96,-7,-29
455,-14,-1,-3,-6,-14,-13,-33,-2
456,49,-2,2,9,47,-5,1,-1
457,49,-2,2,9,47,-5,1,-1
458,2,0,-12,-6,-2,-50,-1,-2
459,2,0,-12,-6,-2,-50,-1,-2
460,-19,1,-5,10,17,-2,5,-9
461,-19,1,-5,10,17,-2,5,-9
462,13,5,3,5,33,28,8,-8
463,13,5,3,5,33,28,8,-8
464,-10,-1,0,-23,-39,-86,4,27
465,-10,-1,0,-23,-39,-86,4,27
466,-10,-1,0,-23,-39,-86,4,27
467,-7,0,-2,9,-4,15,12,-10
468,16,-15,-2,1,-9,8,-17,-5
469,16,-15,-2,1,-9,8,-17,-5
470,34,-2,-3,-3,-17,31,-13,-15
471,34,-2,-3,-3,-17,31,-13,-15
472,34,-2,-3,-3,-17,31,-13,-15
473,29,12,7,-7,18,48,9,2
474,29,12,7,-7,18,48,9,2
475,-9,0,-4,-23,-5,-24,-7,0
476,-21,-3,2,-3,-16,-28,6,-4
477,-31,4,-5,0,-82,18,-34,0
478,-31,4,-5,0,-82,18,-34,0
479,-7,-2,-4,6,-33,7,-2,3
480,-7,-2,-4,6,-33,7,-2,3
481,-1,-10,-1,-3,15,12,34,20
482,-1,-10,-1,-3,15,12,34,20
483,-13,4,0,-12,-33,-4,2,4
484,-4,1,-3,-2,24,-29,21,5
485,-4,1,-3,-2,24,-29,21,5
486,-4,1,-3,-2,24,-29,21,5
487,10,-1,4,2,39,31,-15,1
488,10,-1,4,2,39,31,-15,1
489,-25,-3,-3,14,43,41,-27,2
490,-44,-2,2,-2,-7,-13,0,2
491,-44,-2,2,-2,-7,-13,0,2
492,12,-6,-3,-1,3,21,23,5
493,12,-6,-3,-1,3,21,23,5
494,-41,-1,-6,4,19,-35,3,-5
495,-41,-1,-6,4,19,-35,3,-5
496,31,0,3,-10,-24,0,-51,-21
497,31,0,3,-10,-24,0,-51,-21
498,34,-4,3,5,21,12,-1,14
499,15,-1,-4,14,47,-10,22,-3
500,15,-1,-4,14,47,-10,22,-3
501,15,-1,-4,14,47,-10,22,-3
502,2,3,12,4,15,14,14,1
503,2,3,12,4,15,14,14,1
504,-44,0,0,-4,10,18,-6,11
505,-44,0,0,-4,10,18,-6,11
506,-45,-2,-15,-30,-43,0,-29,-11
507,-45,-2,-15,-30,-43,0,-29,-11
508,-45,-2,-15,-30,-43,0,-29,-11
509,11,2,0,-2,18,25,27,16
510,22,-3,0,1,0,-23,-10,-6
511,22,-3,0,1,0,-23,-10,-6
512,8,5,-3,-5,-23,18,-18,0
513,13,-5,-2,-10,-3,-16,3,-4
514,13,-5,-2,-10,-3,-16,3,-4
515,-16,-13,-5,2,6,19,4,-2
516,-16,-13,-5,2,6,19,4,-2
517,21,2,-17,-2,-21,-34,3,8
518,1,-3,-1,-5,-23,9,10,0
519,1,-3,-1,-5,-23,9,10,0
520,1,-3,-1,-5,-23,9,10,0
521,34,13,6,5,-4,2,8,-1
522,-60,2,-8,6,58,29,9,-5
523,-60,2,-8,6,58,29,9,-5
524,13,1,3,6,12,-16,14,-1
525,13,1,3,6,12,-16,14,-1
526,-10,-3,1,1,11,-23,-11,-17
527,5,-1,3,5,-9,35,27,5
528,22,-6,5,22,13,35,-6,-3
529,22,-6,5,22,13,35,-6,-3
530,-7,7,4,-24,7,-43,-6,0
531,-7,7,4,-24,7,-43,-6,0
532,-7,7,4,-24,7,-43,-6,0
533,1,-7,0,-17,-28,15,-2,7
534,19,0,1,4,-3,-29,21,0
535,19,0,1,4,-3,-29,21,0
536,19,0,1,4,-3,-29,21,0
537,-30,-4,-8,0,-17,-13,-33,-20
538,-30,-4,-8,0,-17,-13,-33,-20
539,-7,-1,-6,8,8,19,-14,5
540,0,-2,6,15,1,37,24,4
541,-21,0,-6,-2,1,-13,16,3
542,-4,3,1,8,4,9,19,1
543,-4,3,1,8,4,9,19,1
544,-48,-2,-4,-11,-27,-9,-22,1
545,-5,1,-7,0,32,6,-8,-8
546,9,-10,-1,-10,-29,-14,-1,-4
547,62,0,-4,-7,21,-46,-2,1
548,62,0,-4,-7,21,-46,-2,1
549,62,0,-4,-7,21,-46,-2,1
550,62,0,-4,-7,21,-46,-2,1
551,-9,5,10,-2,-15,20,-22,2
552,-10,-1,-3,11,-3,13,24,2
553,-34,1,-7,0,36,-14,-6,-1
554,-34,1,-7,0,36,-14,-6,-1
555,-34,1,-7,0,36,-14,-6,-1
556,48,12,2,-17,-45,15,-14,-1
557,-25,-3,-4,17,-24,-45,-31,-9
558,-6,-3,-4,-1,-37,27,12,5
559,-6,-3,-4,-1,-37,27,12,5
560,-6,-3,-4,-1,-37,27,12,5
561,0,-3,-21,10,39,-1,7,-2
562,9,3,7,-2,-2,5,11,0
563,9,3,7,-2,-2,5,11,0
564,7,-6,2,-12,-17,1,-11,-5
565,-2,-2,4,-10,-16,-26,-15,-5
566,-2,-2,4,-10,-16,-26,-15,-5
567,17,-1,3,6,5,18,11,1
568,17,-1,3,6,5,18,11,1
569,2,5,1,0,13,14,-13,5
570,-53,6,2,18,58,-15,-2,-8
571,-53,6,2,18,58,-15,-2,-8
572,-7,-5,-4,6,3,50,12,0
573,-7,-5,-4,6,3,50,12,0
574,-7,-5,-4,6,3,50,12,0
575,31,1,-2,3,2,0,4,-2
576,-27,-2,7,-12,-6,-4,-14,0
577,-27,-2,7,-12,-6,-4,-14,0
578,-9,-8,-9,2,13,-25,10,-9
579,-28,-2,8,-12,-47,-17,-3,-3
580,-28,-2,8,-12,-47,-17,-3,-3
581,33,-4,-3,-11,6,-36,6,2
582,57,-2,-3,0,-1,24,5,-2
583,57,-2,-3,0,-1,24,5,-2
584,57,-2,-3,0,-1,24,5,-2
585,1,4,4,5,-18,13,-15,5
586,1,4,4,5,-18,13,-15,5
587,-23,-3,0,7,9,13,2,-3
588,-45,-6,-1,3,22,-35,6,0
589,-45,-6,-1,3,22,-35,6,0
590,-45,-6,-1,3,22,-35,6,0
591,-29,-2,1,-18,-20,20,-21,4
592,-29,-2,1,-18,-20,20,-21,4
593,38,3,3,14,7,-25,23,2
594,38,3,3,14,7,-25,23,2
595,55,-6,-9,-12,-48,28,13,1
596,-10,-1,5,21,25,-6,2,-8
597,-6,5,-3,5,7,61,-19,3
598,-7,-1,0,5,14,-9,-14,-4
599,-43,0,-7,-1,15,-27,-13,-9
600,-43,0,-7,-1,15,-27,-13,-9
601,7,-3,-7,2,-4,-29,-1,2
602,7,-3,-7,2,-4,-29,-1,2
603,-12,-4,-3,16,56,10,-7,-3
604,-87,-4,-4,-16,-25,-6,3,-3
605,39,1,0,12,37,-46,-2,2
606,39,1,0,12,37,-46,-2,2
607,4,-2,9,-26,-81,-2,0,-4
608,4,-2,9,-26,-81,-2,0,-4
609,-10,6,4,8,34,13,-4,4
610,-10,6,4,8,34,13,-4,4
611,-10,6,4,8,34,13,-4,4
612,-4,7,0,3,6,-50,19,0
613,36,-1,-5,1,26,0,7,1
614,14,1,1,4,-8,-15,-19,0
615,14,1,1,4,-8,-15,-19,0
616,11,4,7,21,18,-22,7,-3
617,-2,-3,-6,-4,2,15,4,2
618,-24,-4,5,12,9,9,1,-5
619,11,-3,-6,-12,-5,27,9,-4
620,-27,2,6,13,32,68,32,11
621,-5,-4,4,-5,-16,-20,-13,2
622,-5,-4,4,-5,-16,-20,-13,2
623,10,0,-4,3,17,9,-25,1
624,-25,-11,-11,-27,-53,-45,-52,-5
625,-25,-11,-11,-27,-53,-45,-52,-5
626,31,-3,10,-6,-24,7,15,-3
627,15,-1,-1,5,-18,-1,-2,5
628,21,8,6,11,14,3,3,-8
629,21,8,6,11,14,3,3,-8
630,21,8,6,11,14,3,3,-8
631,16,1,-10,-10,-2,15,0,3
632,-4,2,3,-8,21,-41,-10,3
633,-4,2,3,-8,21,-41,-10,3
634,-15,0,-6,1,-1,-11,13,-1
635,-20,3,1,3,2,23,-2,2
636,-20,3,1,3,2,23,-2,2
637,27,3,3,-3,17,-33,26,7
638,27,3,3,-3,17,-33,26,7
639,-30,-2,-6,-3,-36,-10,9,-3
640,-16,3,-6,3,14,8,5,-1
641,-15,-5,-7,10,-7,29,-2,-4
642,-13,1,2,2,-4,60,2,-4
643,-13,1,2,2,-4,60,2,-4
644,-40,-12,-21,1,-5,-60,-7,2
645,2,2,0,-2,13,-56,-3,-3
646,14,2,-15,6,6,12,-5,-3
647,2,-4,6,0,12,0,-4,2
648,4,-4,-3,10,37,34,12,-1
649,4,-4,-3,10,37,34,12,-1
650,-9,2,1,-5,-6,9,3,2
651,-10,-1,-15,-5,-13,-11,3,-7
652,8,5,-5,-3,8,33,5,3
653,-10,-4,-2,-1,-19,-72,-13,-2
654,-10,-4,-2,-1,-19,-72,-13,-2
655,-4,-10,-3,-14,12,50,16,-2
656,-4,-10,-3,-14,12,50,16,-2
657,30,-1,9,-3,-10,33,5,1
658,-37,-3,-2,9,-22,-5,-5,-5
659,3,-4,5,-13,-91,-33,-14,-2
660,31,0,2,4,16,7,-10,1
661,31,0,2,4,16,7,-10,1
662,13,2,5,-6,-21,-6,1,-1
663,13,2,5,-6,-21,-6,1,-1
664,17,-2,-3,-26,-36,-10,-3,-6
665,-16,2,-6,6,-1,15,1,-2
666,-1,6,14,-2,-44,-9,11,4
667,-1,6,14,-2,-44,-9,11,4
668,-17,0,3,-7,-14,-31,-13,-3
669,-22,-4,4,2,10,-30,-8,-1
670,-15,0,-4,-8,-33,39,0,0
671,-15,0,-4,-8,-33,39,0,0
672,20,3,-10,1,5,-1,-2,1
673,20,3,-10,1,5,-1,-2,1
674,4,7,-1,6,11,8,-9,5
675,4,7,-1,6,11,8,-9,5
676,-13,5,-1,4,12,14,24,1
677,2,1,-3,-8,-5,-3,-15,-3
678,19,-5,-1,-2,-2,-49,20,2
679,19,-5,-1,-2,-2,-49,20,2
680,4,-7,-5,-4,5,-31,3,2
681,18,-2,-6,2,-6,32,-2,-6
682,13,1,1,-1,10,-12,0,3
683,12,-10,-3,-7,-15,-3,-14,-4
684,12,-10,-3,-7,-15,-3,-14,-4
685,-24,-6,-2,-21,-46,-13,26,-5
686,-24,-6,-2,-21,-46,-13,26,-5
687,-22,1,3,-2,9,-17,-14,-1
688,-22,1,3,-2,9,-17,-14,-1
689,12,-3,2,-27,-73,-33,-31,-2
690,12,-3,2,-27,-73,-33,-31,-2
691,31,-1,0,13,35,-11,-6,-1
692,31,-1,0,13,35,-11,-6,-1
693,8,-2,7,11,-7,-3,7,7
694,-12,3,0,3,11,31,11,5
695,-24,-2,4,14,31,16,5,1
696,-24,-2,4,14,31,16,5,1
697,-11,-2,0,11,22,22,23,1
698,-11,-2,0,11,22,22,23,1
699,-11,-2,0,11,22,22,23,1
700,15,3,-1,11,67,19,13,3
701,23,5,-5,0,5,7,-6,-2
702,13,5,-8,0,-46,26,12,-1
703,9,4,-5,5,15,-7,-9,6
704,9,4,-5,5,15,-7,-9,6
705,13,-6,3,1,-2,32,8,-6
706,-23,-11,-7,-15,-35,-52,-18,-3
707,-23,-11,-7,-15,-35,-52,-18,-3
708,-21,0,5,-17,-54,-67,-10,-4
709,-21,0,5,-17,-54,-67,-10,-4
710,9,0,-1,11,9,24,1,0
711,-32,-9,-1,-10,-2,49,6,-6
712,-32,-9,-1,-10,-2,49,6,-6
713,3,5,-3,8,50,-22,-8,-1
714,3,5,-3,8,50,-22,-8,-1
715,8,1,0,0,-5,-9,-7,6
716,-4,2,-3,-4,-1,-61,2,0
717,21,-3,-5,1,8,29,1,-1
718,-4,6,8,12,71,19,6,0
719,-4,6,8,12,71,19,6,0
720,-4,6,8,12,71,19,6,0
721,-23,-3,-3,13,6,-1,-9,6
722,-2,0,1,-7,-29,-18,-8,2
723,2,-5,-2,-7,-14,-39,-39,-1
724,2,-5,-2,-7,-14,-39,-39,-1
725,14,8,-4,-14,-71,4,2,7
726,14,8,-4,-14,-71,4,2,7
727,0,7,0,4,21,7,3,-4
728,39,-6,-3,19,24,38,2,-1
729,0,-8,-3,5,4,-21,-7,-4
730,0,-8,-3,5,4,-21,-7,-4
731,-28,0,10,-11,-7,3,1,-5
732,-28,0,10,-11,-7,3,1,-5
733,-28,0,10,-11,-7,3,1,-5
734,-4,-3,-3,0,11,-61,11,2
735,-40,-6,-1,-15,11,34,18,-9
736,-13,-1,5,-7,-9,20,2,-7
737,8,-2,1,6,18,5,-5,-1
738,8,-2,1,6,18,5,-5,-1
739,-25,-4,-6,4,11,-39,14,-2
740,9,12,5,-3,5,-11,10,4
741,-17,-1,1,-2,-40,-5,-24,-2
742,-10,-1,-4,9,-1,19,21,-2
743,-40,-5,-10,6,18,27,2,0
744,-40,-5,-10,6,18,27,2,0
745,-10,1,1,4,20,4,14,2
746,-10,1,1,4,20,4,14,2
747,3,-4,-1,-2,0,21,9,-3
748,22,2,1,12,-40,12,-5,0
749,13,3,11,-10,38,50,-17,-3
750,13,3,11,-10,38,50,-17,-3
751,-16,-2,-1,-25,-19,-29,-21,2
752,-16,-2,-1,-25,-19,-29,-21,2
753,-6,1,-8,-29,-8,46,-1,-2
754,37,14,-3,6,-17,24,-3,13
755,37,14,-3,6,-17,24,-3,13
756,37,14,-3,6,-17,24,-3,13
757,25,-3,2,18,7,0,21,2
758,25,-3,2,18,7,0,21,2
759,17,-7,0,5,3,12,7,1
760,17,-7,0,5,3,12,7,1
761,-5,-2,-3,-7,-15,53,5,2
762,-5,-2,-3,-7,-15,53,5,2
763,2,-1,-2,11,0,0,22,0
764,2,-1,-2,11,0,0,22,0
765,-64,-3,2,-23,-58,-62,-5,-3
766,-13,2,-2,-22,-50,-47,-20,-5
767,-8,-1,2,13,17,-17,-4,-6
768,-8,-1,2,13,17,-17,-4,-6
769,13,6,-4,9,45,-37,5,-1
770,13,6,-4,9,45,-37,5,-1
771,9,11,3,-4,-22,-17,0,0
772,9,11,3,-4,-22,-17,0,0
773,-20,1,-1,5,-9,42,3,-3
774,-20,1,-1,5,-9,42,3,-3
775,27,-1,0,9,26,57,25,-3
776,27,-1,0,9,26,57,25,-3
777,-21,-5,6,9,9,-26,-33,-2
778,-21,-5,6,9,9,-26,-33,-2
779,16,6,-2,6,-3,36,25,2
780,-2,-5,3,-2,-16,1,12,0
781,-2,-5,3,-2,-16,1,12,0
782,31,-7,0,12,24,27,10,-7
783,-21,-5,-3,-2,-2,-30,22,1
784,-8,2,7,-16,-27,65,15,-3
785,-8,2,7,-16,-27,65,15,-3
786,8,3,2,-6,-42,-49,-16,6
787,8,3,2,-6,-42,-49,-16,6
788,18,-1,-7,-3,-27,-20,-2,3
789,22,3,3,-2,-35,-51,-15,-1
790,3,1,-11,20,47,8,5,2
791,3,1,-11,20,47,8,5,2
792,10,6,0,7,42,11,-11,1
793,20,-10,3,-1,-8,-33,6,-2
794,-40,-7,-2,5,77,66,1,-9
795,-40,-7,-2,5,77,66,1,-9
796,-3,1,0,2,8,-25,4,-1
797,-3,1,0,2,8,-25,4,-1
798,1,-1,0,0,-21,-39,-15,4
799,1,-1,0,0,-21,-39,-15,4
800,1,-1,0,0,-21,-39,-15,4
801,-1,3,0,-21,-51,-64,2,-3
802,-20,-5,-4,-12,-7,-18,-12,-1
803,-11,4,0,-7,9,27,2,6
804,1,-2,-1,3,15,74,-16,-1
805,1,1,-12,6,0,-24,18,-4
806,58,2,-1,7,51,-10,-7,-1
807,-29,-6,0,-6,-3,8,-2,1
808,-29,-6,0,-6,-3,8,-2,1
809,-2,-3,-15,-13,-18,7,-7,-4
810,-2,-3,-15,-13,-18,7,-7,-4
811,2,-2,1,2,-3,51,19,2
812,-40,-1,-5,-16,-24,31,6,-2
813,8,0,5,0,-41,-69,-15,1
814,8,0,5,0,-41,-69,-15,1
815,8,-6,4,-1,17,-6,1,0
816,19,5,-1,-9,-48,5,-17,6
817,19,5,-1,-9,-48,5,-17,6
818,-3,0,0,-1,-13,1,2,-1
819,6,6,3,13,47,40,12,-1
820,-9,-1,-4,-2,3,-33,-11,2
821,-9,-1,-4,-2,3,-33,-11,2
822,-9,-1,-4,-2,3,-33,-11,2
823,13,-6,2,14,60,47,5,-6
824,13,-6,2,14,60,47,5,-6
825,-14,5,8,-14,-34,-24,-1,0
826,6,-8,3,-11,-48,-10,-3,1
827,2,2,1,2,24,18,3,-1
828,2,2,1,2,24,18,3,-1
829,2,2,1,2,24,18,3,-1
830,8,-6,-6,12,19,-15,0,-5
831,15,2,0,-3,5,-11,0,1
832,-21,1,-1,-5,29,-2,8,1
833,-21,1,-1,-5,29,-2,8,1
834,-21,1,-1,-5,29,-2,8,1
835,23,7,4,20,31,-2,-14,1
836,23,7,4,20,31,-2,-14,1
837,1,-2,3,2,-3,7,31,2
838,1,-2,3,2,-3,7,31,2
839,1,4,-5,7,18,-3,5,2
840,13,-4,-8,4,18,21,13,0
841,-16,6,3,-8,-35,-41,-9,2
842,-16,6,3,-8,-35,-41,-9,2
843,-16,6,3,-8,-35,-41,-9,2
844,15,-3,-1,-17,-82,-24,-22,-4
845,15,-3,-1,-17,-82,-24,-22,-4
846,21,1,1,10,13,49,-14,3
847,21,1,1,10,13,49,-14,3
848,2,-3,1,-9,-18,13,-15,-6
849,2,-3,1,-9,-18,13,-15,-6
850,-21,1,0,8,18,-43,-5,-1
851,-9,-1,0,0,3,7,-2,-9
852,-9,-1,0,0,3,7,-2,-9
853,4,3,0,-2,2,-9,23,4
854,4,3,0,-2,2,-9,23,4
855,-35,-4,4,-23,24,3,13,-5
856,13,-1,-2,-9,-40,-28,-4,-1
857,8,-1,-6,17,46,19,-11,-13
858,-6,-4,1,1,-4,0,2,3
859,-6,-4,1,1,-4,0,2,3
860,-6,-4,1,1,-4,0,2,3
861,26,0,-2,-9,-56,-8,-6,3
862,-26,-3,0,-10,-59,4,-1,0
863,-8,-3,-8,7,22,9,5,1
864,-8,-3,-8,7,22,9,5,1
865,37,4,-1,11,2,-21,-13,6
866,37,4,-1,11,2,-21,-13,6
867,37,4,-1,11,2,-21,-13,6
868,-32,-3,-3,-17,-53,-27,30,0
869,8,0,2,20,76,53,7,-5
870,-14,-1,-7,-8,0,6,-20,-4
871,-23,-6,-3,7,13,-5,-2,-6
872,-23,-6,-3,7,13,-5,-2,-6
873,4,-10,-2,8,14,6,-13,-3
874,4,-10,-2,8,14,6,-13,-3
875,25,1,2,-19,-37,-41,6,0
876,25,1,2,-19,-37,-41,6,0
877,25,1,2,-19,-37,-41,6,0
878,25,6,2,18,44,35,7,5
879,25,6,2,18,44,35,7,5
880,-13,-2,-10,9,18,-3,1,-6
881,15,10,4,-6,-17,7,-6,-2
882,-21,-5,4,-27,-83,-36,-24,2
883,-17,-1,-14,-2,6,41,2,-2
884,-17,-1,-14,-2,6,41,2,-2
885,-13,0,3,-6,2,-18,1,1
886,53,-7,-3,-13,-54,-69,-30,-10
887,53,-7,-3,-13,-54,-69,-30,-10
888,-8,1,6,4,15,-3,13,-1
889,-12,0,0,8,23,-12,-3,-6
890,-12,0,0,8,23,-12,-3,-6
891,8,4,1,12,36,28,17,-2
892,8,4,1,12,36,28,17,-2
893,4,-10,-1,-6,-2,-27,3,-2
894,4,-10,-1,-6,-2,-27,3,-2
895,2,-4,-2,-2,-13,6,-9,-1
896,2,-4,-2,-2,-13,6,-9,-1
897,2,3,1,3,53,25,-11,2
898,-15,-5,1,7,13,0,12,-1
899,3,2,1,-9,11,-20,-8,3
900,3,2,1,-9,11,-20,-8,3
901,12,-1,-2,-20,-47,18,-1,4
902,12,-1,-2,-20,-47,18,-1,4
903,-1,6,-2,4,8,-16,-44,-10
904,-1,6,-2,4,8,-16,-44,-10
905,18,0,6,-17,-22,-10,4,0
906,13,1,-2,10,-6,-11,2,-2
907,13,1,-2,10,-6,-11,2,-2
908,22,3,5,-1,-28,15,13,1
909,-14,-7,-4,4,17,-3,2,1
910,10,8,7,27,29,29,-21,-1
911,10,8,7,27,29,29,-21,-1
912,-9,1,2,-1,3,37,1,1
913,-9,1,2,-1,3,37,1,1
914,-21,5,-1,-18,15,-14,31,3
915,17,7,-5,-13,-57,-58,2,5
916,17,7,-5,-13,-57,-58,2,5
917,-37,-7,-7,-10,-65,-28,10,-5
918,31,8,8,0,8,-27,16,1
919,31,8,8,0,8,-27,16,1
920,23,1,0,-8,-58,57,0,7
921,23,1,0,-8,-58,57,0,7
922,38,3,-3,7,42,0,-2,-4
923,21,1,0,3,24,-1,1,2
924,-2,-14,-1,2,-5,-9,10,-3
925,-2,-14,-1,2,-5,-9,10,-3
926,-2,-14,-1,2,-5,-9,10,-3
927,5,4,-6,-13,-50,-7,0,4
928,-26,-1,0,-30,-47,7,5,-2
929,-28,-9,-10,10,-4,-69,2,-3
930,-28,-9,-10,10,-4,-69,2,-3
931,-3,2,4,-9,16,-8,-16,-2
932,-3,2,4,-9,16,-8,-16,-2
933,8,2,-9,-4,-10,44,21,-3
934,8,2,-9,-4,-10,44,21,-3
935,8,2,-9,-4,-10,44,21,-3
936,8,-2,2,-21,-57,-9,-20,-4
937,12,1,3,-5,25,-19,-26,-1
938,12,1,3,-5,25,-19,-26,-1
939,12,1,3,-5,25,-19,-26,-1
940,0,-1,0,32,-13,26,-18,-8
941,0,-1,0,32,-13,26,-18,-8
942,-20,-3,3,31,73,18,8,4
943,-20,-3,3,31,73,18,8,4
944,4,-7,-2,1,2,7,-35,-5
945,-4,-5,0,-9,5,-9,-1,2
946,-15,6,-2,8,42,-14,3,-1
947,-15,6,-2,8,42,-14,3,-1
948,0,1,1,-21,-42,1,27,5
949,0,1,1,-21,-42,1,27,5
950,-2,0,-3,16,28,-11,10,5
951,-8,-7,-3,-4,-10,-60,-25,-4
952,-8,-7,-3,-4,-10,-60,-25,-4
953,-8,-7,-3,-4,-10,-60,-25,-4
954,25,1,-1,-7,23,35,17,0
955,7,-4,4,22,5,7,6,3
956,7,-4,4,22,5,7,6,3
957,-8,-2,0,5,33,33,-7,-1
958,-8,-2,0,5,33,33,-7,-1
959,-8,-2,0,5,33,33,-7,-1
960,-11,1,-2,-4,10,-19,-44,-8
961,-11,1,-2,-4,10,-19,-44,-8
962,-15,2,-8,-6,4,6,2,-2
963,-15,2,-8,-6,4,6,2,-2
964,-6,-4,2,-20,-38,-5,-6,-7
965,-6,-4,2,-20,-38,-5,-6,-7
966,-8,-3,5,-2,-18,-1,18,3
967,-8,-3,5,-2,-18,-1,18,3
968,0,-14,-6,-21,-36,-15,10,-4
969,0,-14,-6,-21,-36,-15,10,-4
970,0,-14,-6,-21,-36,-15,10,-4
971,10,4,2,-7,-12,-34,-2,0
972,10,4,2,-7,-12,-34,-2,0
973,-7,6,-4,-16,-48,-11,-10,-1
974,-7,6,-4,-16,-48,-11,-10,-1
975,-20,2,-8,21,20,11,-18,3
976,-7,2,-1,3,-22,9,6,-1
977,20,-6,-4,-5,19,-21,11,4
978,20,-6,-4,-5,19,-21,11,4
979,23,-1,3,0,-11,20,-6,0
980,33,3,0,-23,-44,-40,14,-2
981,5,2,-1,-3,-11,44,-16,-1
982,5,2,-1,-3,-11,44,-16,-1
983,-8,6,-23,-9,-35,-30,25,-1
984,-13,1,-1,7,32,-4,0,-2
985,-16,6,4,3,1,4,-13,-8
986,8,-2,0,21,68,26,-1,-3
987,8,-2,0,21,68,26,-1,-3
988,8,-2,0,21,68,26,-1,-3
989,27,4,-7,-18,-82,-7,1,-2
990,-17,-6,-2,5,-39,-14,-21,-5
991,-17,-6,-2,5,-39,-14,-21,-5
992,-6,-1,5,14,38,57,5,3
993,2,0,5,-5,-21,-15,-36,-2
994,2,0,5,-5,-21,-15,-36,-2
995,-4,-1,-3,-6,-2,-7,7,1
996,-15,-1,4,-13,-22,57,8,1
997,-15,-1,4,-13,-22,57,8,1
998,-38,-4,7,-13,-23,-15,-4,-4
999,-38,-4,7,-13,-23,-15,-4,-4
1000,11,0,-2,0,-5,-16,6,-3
1001,26,0,-3,-31,-68,-60,19,-1
1002,26,0,-3,-31,-68,-60,19,-1
1003,19,-2,-2,13,34,33,-5,0
1004,19,-2,-2,13,34,33,-5,0
1005,-11,6,0,7,12,6,-9,2
1006,2,0,-21,7,45,-31,19,5
1007,2,0,-21,7,45,-31,19,5
1008,-5,-5,1,1,-2,-13,-12,-4
1009,-21,3,1,12,41,27,4,-5
1010,-21,3,1,12,41,27,4,-5
1011,-21,3,1,12,41,27,4,-5
1012,48,-10,6,3,10,2,-16,-6
1013,17,5,-3,5,1,0,10,0
1014,17,5,-3,5,1,0,10,0
1015,-1,-3,-4,5,-36,-8,-17,3
1016,-13,5,-3,-13,-67,-28,1,-7
1017,9,4,3,0,2,1,-32,0
1018,22,-1,0,-8,-30,-44,11,1
1019,22,-1,0,-8,-30,-44,11,1
1020,22,-1,0,-8,-30,-44,11,1
1021,22,-1,0,-8,-30,-44,11,1
1022,-24,-1,0,2,17,-20,-17,-2
1023,6,-1,4,-11,-11,-32,-16,-1
1024,22,-1,-5,0,-1,-7,8,2
1025,22,-1,-5,0,-1,-7,8,2
1026,22,-1,-5,0,-1,-7,8,2
1027,19,-4,-6,-26,-83,-31,-20,-5
1028,19,-4,-6,-26,-83,-31,-20,-5
1029,19,-4,-6,-26,-83,-31,-20,-5
1030,-29,0,4,0,36,22,3,-1
1031,27,11,5,0,34,12,18,5
1032,27,11,5,0,34,12,18,5
1033,-18,-3,-4,25,41,17,22,4
1034,-18,-3,-4,25,41,17,22,4
1035,-18,-3,-4,25,41,17,22,4
1036,-16,-1,-6,-13,45,32,-12,-6
1037,-16,-1,-6,-13,45,32,-12,-6
1038,-16,-1,-6,-13,45,32,-12,-6
1039,-3,2,6,5,-4,45,12,1
1040,-3,2,6,5,-4,45,12,1
1041,2,2,-4,2,-14,-59,-19,-10
1042,-1,3,4,15,29,-17,18,0
1043,-1,3,4,15,29,-17,18,0
1044,-4,-4,2,-6,-17,-18,-2,-4
1045,-17,2,8,-7,-36,17,-16,1
1046,-17,2,8,-7,-36,17,-16,1
1047,-8,-6,-1,5,-2,17,13,0
1048,-8,-13,-3,-14,-59,-29,-18,-3
1049,-8,-13,-3,-14,-59,-29,-18,-3
1050,16,7,2,9,19,-12,3,2
1051,16,7,2,9,19,-12,3,2
1052,-5,-3,-2,-10,9,-43,6,3
1053,-37,-10,-18,3,26,36,-22,-6
1054,-37,-10,-18,3,26,36,-22,-6
1055,21,0,3,-14,8,22,-21,-1
1056,21,0,3,-14,8,22,-21,-1
1057,-11,-2,4,0,5,-40,25,6
1058,-11,-2,4,0,5,-40,25,6
1059,20,-4,-2,5,16,22,-4,7
1060,20,-4,-2,5,16,22,-4,7
1061,9,8,5,-2,-16,-6,-4,-1
1062,9,8,5,-2,-16,-6,-4,-1
1063,-12,2,2,-10,-10,-20,0,-3
1064,-22,-6,-5,-4,-35,9,11,-5
1065,-22,-6,-5,-4,-35,9,11,-5
1066,7,7,3,9,38,31,3,4
1067,7,7,3,9,38,31,3,4
1068,7,7,3,9,38,31,3,4
1069,2,0,7,-4,-5,13,18,-1
1070,17,0,4,4,45,16,2,-3
1071,17,0,4,4,45,16,2,-3
1072,2,-6,-6,-19,-59,21,-22,-2
1073,2,-6,-6,-19,-59,21,-22,-2
1074,-36,3,-1,19,43,4,-13,-20
1075,-12,-3,-9,5,16,1,9,-5
1076,-12,-3,-9,5,16,1,9,-5
1077,-12,-3,-9,5,16,1,9,-5
1078,13,0,-5,1,-37,0,-35,5
1079,13,0,-5,1,-37,0,-35,5
1080,13,0,-5,1,-37,0,-35,5
1081,9,-6,5,18,20,21,26,2
1082,11,-3,1,-5,-26,11,-9,-1
1083,11,-3,1,-5,-26,11,-9,-1
1084,30,5,-13,-5,7,14,-5,5
1085,30,5,-13,-5,7,14,-5,5
1086,-2,5,0,-15,-31,-8,26,2
1087,-2,5,0,-15,-31,-8,26,2
1088,-7,-1,3,-8,-34,-68,-7,1
1089,-13,3,5,0,6,31,-12,-2
1090,7,-6,2,8,36,10,20,3
1091,-8,0,-2,-5,-19,7,-2,-3
1092,-13,-3,0,-14,-8,0,-4,-5
1093,14,-1,-3,-11,-40,-2,1,4
1094,14,-1,-3,-11,-40,-2,1,4
1095,14,3,0,14,22,36,13,8
1096,0,1,-3,-9,31,22,9,3
1097,1,4,4,6,18,-29,1,-2
1098,1,4,4,6,18,-29,1,-2
1099,-31,-3,2,10,36,43,-2,-8
1100,-12,-4,-2,2,6,-31,-5,2
1101,33,0,1,8,12,-15,-8,2
1102,33,0,1,8,12,-15,-8,2
1103,11,-4,-4,-4,-39,-33,7,2
1104,11,-4,-4,-4,-39,-33,7,2
1105,-29,4,-3,-26,-83,-56,-13,-4
1106,-29,4,-3,-26,-83,-56,-13,-4
1107,-12,-3,-6,-6,-20,-12,-2,4
1108,-13,-1,5,7,5,-12,13,-7
1109,-11,-15,-2,-14,-27,-50,-27,-8
1110,-11,-15,-2,-14,-27,-50,-27,-8
1111,-7,-2,-1,-6,1,13,8,1
1112,-7,-2,-1,-6,1,13,8,1
1113,-7,-2,-1,-6,1,13,8,1
1114,-4,8,-15,24,83,6,13,-1
1115,-4,-5,6,1,32,26,-6,-4
1116,-4,-5,6,1,32,26,-6,-4
1117,16,3,1,1,-7,-4,-1,-7
1118,26,3,-2,18,-5,-6,-3,9
1119,26,3,-2,18,-5,-6,-3,9
1120,-17,-5,-1,2,-17,14,13,7
1121,38,-2,-4,-2,-5,-16,-46,0
1122,38,-2,-4,-2,-5,-16,-46,0
1123,11,6,3,0,-5,23,18,1
1124,-38,-3,2,-10,-38,-15,-3,-4
1125,-38,-3,2,-10,-38,-15,-3,-4
1126,9,6,4,5,12,-33,11,2
1127,6,-1,1,-13,-16,-11,-4,-5
1128,6,-1,1,-13,-16,-11,-4,-5
1129,-2,-6,4,2,22,26,-7,-2
1130,-2,-6,4,2,22,26,-7,-2
1131,-2,-6,4,2,22,26,-7,-2
1132,-36,0,-1,-8,19,68,8,-8
1133,4,-3,-6,5,-13,-1,18,-8
1134,78,-2,-4,7,22,54,-11,3
1135,78,-2,-4,7,22,54,-11,3
1136,24,9,1,-7,-36,26,27,6
1137,24,9,1,-7,-36,26,27,6
1138,24,9,1,-7,-36,26,27,6
1139,-40,-6,7,-7,-10,-26,-60,2
1140,-26,-4,-2,-6,-9,-11,49,-2
1141,-26,-4,-2,-6,-9,-11,49,-2
1142,-26,-6,-2,13,22,14,-2,-6
1143,-16,0,-9,1,-16,-60,-54,-17
1144,9,-3,1,1,11,48,6,-3
1145,-13,0,-6,-14,-23,-15,-31,1
1146,-13,0,-6,-14,-23,-15,-31,1
1147,-3,3,-4,-1,-48,42,11,5
1148,-3,3,-4,-1,-48,42,11,5
1149,22,-5,7,5,30,-4,13,-1
1150,22,-5,7,5,30,-4,13,-1
1151,-7,0,-4,7,0,34,14,-4
1152,-7,0,-4,7,0,34,14,-4
1153,13,7,-26,-1,-45,-8,-18,0
1154,-1,-2,1,5,12,4,24,0
1155,-9,-1,4,3,-41,-44,12,-1
1156,-8,-2,3,15,21,-13,-4,-6
1157,-7,-8,-1,-49,-28,3,-4,4
1158,-7,-8,-1,-49,-28,3,-4,4
1159,17,3,-14,9,2,-37,-7,-5
1160,17,3,-14,9,2,-37,-7,-5
1161,15,0,-5,-11,-1,10,11,0
1162,15,0,-5,-11,-1,10,11,0
1163,-47,-9,-2,3,16,66,7,2
1164,-20,-4,-1,3,-12,5,-66,0
1165,-20,-4,-1,3,-12,5,-66,0
1166,-28,-7,0,4,5,5,10,-7
1167,-28,-7,0,4,5,5,10,-7
1168,11,-2,-4,3,-42,-2,4,0
1169,11,-2,-4,3,-42,-2,4,0
1170,14,4,7,18,49,15,26,-1
1171,-24,-1,-3,-20,37,-43,-19,-9
1172,-24,-1,-3,-20,37,-43,-19,-9
1173,-11,-1,2,10,-1,-13,18,5
1174,-11,-1,2,10,-1,-13,18,5
1175,8,-4,5,14,30,51,7,2
1176,9,-5,2,-4,-23,-1,-17,-11
1177,3,1,-3,-12,-18,-31,34,3
1178,3,1,-3,-12,-18,-31,34,3
1179,-38,-5,2,12,42,26,-19,-9
1180,-38,-5,2,12,42,26,-19,-9
1181,-2,2,-5,-5,39,65,-56,-4
1182,24,5,-6,0,-9,46,14,9
1183,0,-4,-4,-10,-27,-16,-4,1
1184,0,-4,-4,-10,-27,-16,-4,1
1185,43,8,-9,5,17,-19,-7,-3
1186,43,8,-9,5,17,-19,-7,-3
1187,-2,2,7,0,19,58,29,2
1188,-7,4,6,3,-1,-52,0,7
1189,0,10,-1,-4,-43,-42,-17,6
1190,-7,8,13,25,23,-76,-43,-2
1191,-7,8,13,25,23,-76,-43,-2
1192,16,-2,-3,4,16,-3,13,2
1193,5,2,1,-5,-12,-9,-14,1
1194,18,2,10,8,19,57,3,1
1195,3,8,-3,-4,16,2,17,3
1196,3,8,-3,-4,16,2,17,3
1197,17,-4,6,10,-1,2,7,-4
1198,-4,-6,-4,-12,-48,-101,31,3
1199,-33,-9,-8,3,52,28,16,-4
1200,5,-1,0,4,27,23,28,-5
1201,5,-1,0,4,27,23,28,-5
1202,5,-1,0,4,27,23,28,-5
1203,-10,-2,-2,16,55,7,-17,0
1204,-16,-5,-1,11,24,-7,-34,-5
1205,6,-1,-2,-1,-19,42,0,-5
1206,-18,1,4,-22,-20,-33,-12,1
1207,-18,1,4,-22,-20,-33,-12,1
1208,27,-1,-6,8,3,-37,-10,-5
1209,27,-1,-6,8,3,-37,-10,-5
1210,27,-1,-6,8,3,-37,-10,-5
1211,-55,-10,-7,4,13,-10,-7,-1
1212,30,-6,-1,-5,8,-39,14,0
1213,-25,0,-3,-4,-37,8,14,-1
1214,-25,0,-3,-4,-37,8,14,-1
1215,5,-4,-2,3,-40,-21,-25,2
1216,5,-4,-2,3,-40,-21,-25,2
1217,-12,-9,-11,-17,-38,7,-26,4
1218,-12,-9,-11,-17,-38,7,-26,4
1219,-16,-2,-3,-4,2,50,-14,-1
1220,-16,-2,-3,-4,2,50,-14,-1
1221,-16,-2,-3,-4,2,50,-14,-1
1222,5,-7,-5,-2,2,19,1,9
1223,24,2,0,9,5,5,-1,-5
1224,-10,6,8,-21,-15,-46,9,0
1225,62,-6,-3,8,22,5,33,-3
1226,-13,-2,-13,10,37,-47,-21,-5
1227,8,0,11,14,37,14,15,-5
1228,8,0,11,14,37,14,15,-5
1229,-21,4,3,21,15,35,8,5
1230,-21,4,3,21,15,35,8,5
1231,3,-2,-2,-8,-25,23,3,-1
1232,3,-2,-2,-8,-25,23,3,-1
1233,3,-2,-2,-8,-25,23,3,-1
1234,27,1,-7,-26,-36,3,-37,-6
1235,27,1,-7,-26,-36,3,-37,-6
1236,-12,-1,-4,4,-6,13,-1,-2
1237,5,1,-2,-12,2,-16,-6,10
1238,5,1,-2,-12,2,-16,-6,10
1239,-21,1,4,22,64,35,9,-6
1240,-21,1,4,22,64,35,9,-6
1241,2,1,0,-16,-38,-15,-3,1
1242,8,-12,-6,17,42,-11,31,-7
1243,3,-2,2,-19,-3,-89,1,2
1244,-21,-12,-3,3,2,52,11,-4
1245,32,-5,-2,20,36,31,50,-9
1246,-17,-9,-1,-5,-10,-25,-15,-2
1247,10,2,-4,-2,-22,15,12,1
1248,-9,1,2,-14,-5,-3,39,1
1249,-9,1,2,-14,-5,-3,39,1
1250,10,5,-1,6,28,8,-8,-4
1251,10,5,-1,6,28,8,-8,-4
1252,-5,1,2,14,-5,37,-4,1
1253,-7,6,-3,-14,-18,23,-4,-1
1254,-1,1,2,1,-33,14,-4,7
1255,-1,1,2,1,-33,14,-4,7
1256,-34,-8,-4,-9,-9,-12,44,4
1257,-34,-8,-4,-9,-9,-12,44,4
1258,-34,-8,-4,-9,-9,-12,44,4
1259,6,5,5,23,47,1,-8,-4
1260,-22,1,-8,1,-10,-73,-2,-14
1261,-11,4,0,-8,3,33,-24,-5
1262,-11,4,0,-8,3,33,-24,-5
1263,14,-3,-10,-15,-61,-6,-32,-7
1264,14,-3,-10,-15,-61,-6,-32,-7
1265,-34,-1,-3,4,5,12,-16,9
1266,-6,-10,0,-24,-56,-11,12,5
1267,23,4,2,-2,-7,-38,-36,-2
1268,23,4,2,-2,-7,-38,-36,-2
1269,3,1,0,15,-30,-65,12,-3
1270,3,1,0,15,-30,-65,12,-3
1271,-10,-7,-3,-15,-23,36,-4,-4
1272,-10,-7,-3,-15,-23,36,-4,-4
1273,-8,6,3,-11,-44,17,11,2
1274,23,-3,-7,19,63,18,-55,-9
1275,-3,-2,1,-8,-10,37,25,-3
1276,-3,-2,1,-8,-10,37,25,-3
1277,7,4,2,23,-3,-15,-2,-1
1278,7,4,2,23,-3,-15,-2,-1
1279,21,-5,1,-13,-13,16,27,1
1280,21,-5,1,-13,-13,16,27,1
1281,21,-5,1,-13,-13,16,27,1
1282,-19,-2,0,-34,-50,-80,9,4
1283,-19,-2,0,-34,-50,-80,9,4
1284,-7,-2,1,18,22,19,-17,0
1285,34,9,11,12,29,8,-14,-9
1286,-24,2,0,1,9,-45,17,3
1287,-24,2,0,1,9,-45,17,3
1288,15,-5,-2,-3,26,20,3,-3
1289,15,-5,-2,-3,26,20,3,-3
1290,-21,-2,-1,-31,-11,-6,-29,-6
1291,-21,-2,-1,-31,-11,-6,-29,-6
1292,-1,-3,-4,14,21,8,12,-3
1293,-1,-3,-4,14,21,8,12,-3
1294,1,-2,4,-2,-11,15,29,10
1295,4,2,-4,3,-31,-5,-10,-5
1296,-10,-4,-9,-3,9,28,70,-3
1297,11,1,3,10,25,26,-5,-1
1298,11,1,3,10,25,26,-5,-1
1299,9,2,0,-7,8,-42,-15,2
1300,9,2,0,-7,8,-42,-15,2
1301,9,2,0,-7,8,-42,-15,2
1302,9,2,0,-7,8,-42,-15,2
1303,13,7,-3,5,8,14,-44,-7
1304,13,7,-3,5,8,14,-44,-7
1305,24,-7,-8,-12,-14,1,-20,0
1306,24,-7,-8,-12,-14,1,-20,0
1307,8,7,9,18,8,13,-3,1
1308,8,7,9,18,8,13,-3,1
1309,0,-9,-10,-16,-65,-23,-11,2
1310,0,-9,-10,-16,-65,-23,-11,2
1311,20,2,9,20,5,-46,-10,2
1312,-2,0,6,26,64,37,-42,-3
1313,-2,0,6,26,64,37,-42,-3
1314,9,2,-8,-2,-19,0,7,-3
1315,-4,-7,-4,-15,-43,-9,-12,0
1316,-4,-7,-4,-15,-43,-9,-12,0
1317,11,3,3,2,26,25,24,2
1318,11,3,3,2,26,25,24,2
1319,11,3,3,2,26,25,24,2
1320,-12,8,7,3,-2,14,15,3
1321,-12,8,7,3,-2,14,15,3
1322,14,-3,4,-8,-19,0,3,-2
1323,14,-3,4,-8,-19,0,3,-2
1324,14,-3,4,-8,-19,0,3,-2
1325,-24,0,-7,-3,13,18,11,0
1326,-24,0,-7,-3,13,18,11,0
1327,-8,0,6,7,7,-3,-4,10
1328,7,-2,-8,-1,6,-16,47,10
1329,13,-8,-14,-6,3,-14,-18,-1
1330,13,-8,-14,-6,3,-14,-18,-1
1331,-4,2,0,-2,-9,21,17,5
1332,-4,2,0,-2,-9,21,17,5
1333,17,-3,4,-13,-3,-21,-15,4
1334,-16,-3,7,1,27,31,-13,-4
1335,-6,-3,-2,-11,-31,-12,-17,-12
1336,-6,-3,-2,-11,-31,-12,-17,-12
1337,-31,0,10,4,30,4,-1,0
1338,-3,-1,2,2,-8,40,-26,6
1339,-3,-1,2,2,-8,40,-26,6
1340,34,-3,-1,13,19,2,-15,3
1341,34,-3,-1,13,19,2,-15,3
1342,6,4,4,-5,-10,22,13,-1
1343,6,4,4,-5,-10,22,13,-1
1344,-31,-4,-4,2,-58,26,7,-12
1345,-24,-2,-10,-2,-13,-4,0,-4
1346,-24,-2,-10,-2,-13,-4,0,-4
1347,6,0,1,10,-25,-54,-14,-9
1348,6,0,1,10,-25,-54,-14,-9
1349,9,-8,2,7,17,-49,21,-4
1350,9,-8,2,7,17,-49,21,-4
1351,11,-1,-5,-5,-29,7,-5,0
1352,2,2,1,0,23,-1,-34,-3
1353,10,4,0,-11,1,-2,-7,4
1354,2,-5,8,-6,3,44,19,2
1355,2,-5,8,-6,3,44,19,2
1356,7,-8,-2,-14,10,-4,-7,-5
1357,7,-8,-2,-14,10,-4,-7,-5
1358,-13,-4,1,6,-11,-39,-13,-8
1359,1,9,-7,-3,11,-53,-30,-5
1360,1,9,-7,-3,11,-53,-30,-5
1361,1,9,-7,-3,11,-53,-30,-5
1362,-6,-2,3,-2,-37,19,11,-4
1363,-18,-7,-2,-9,-16,-33,12,-10
1364,-18,-6,-3,-24,2,-12,-3,1
1365,15,0,0,7,22,15,-58,-7
1366,15,0,0,7,22,15,-58,-7
1367,-9,-2,-2,3,16,14,-15,0
1368,-20,-2,-6,25,23,10,16,1
1369,39,7,12,-17,-7,39,-51,0
1370,-5,-7,1,-6,8,-10,-4,5
1371,-5,-7,1,-6,8,-10,-4,5
1372,7,5,9,6,3,-15,11,-7
1373,7,5,9,6,3,-15,11,-7
1374,-34,-8,-11,-14,-34,-33,-11,7
1375,-11,-3,0,-7,-23,-6,-9,0
1376,28,2,-1,-3,-2,32,9,7
1377,28,2,-1,-3,-2,32,9,7
1378,12,3,2,-3,-5,51,-33,5
1379,12,3,2,-3,-5,51,-33,5
1380,-4,-3,0,5,20,-1,19,7
1381,-6,5,-4,-7,18,26,7,6
1382,-65,-3,10,8,7,16,-4,-10
1383,-65,-3,10,8,7,16,-4,-10
1384,29,0,4,13,9,-46,5,1
1385,-43,12,4,9,33,1,4,0
1386,-43,12,4,9,33,1,4,0
1387,5,-4,-4,3,8,-15,6,2
1388,1,6,-3,14,-1,12,-18,5
1389,-15,-6,2,-13,-68,11,21,5
1390,-15,-6,2,-13,-68,11,21,5
1391,19,-4,4,-13,-13,-17,-10,-7
1392,19,-4,4,-13,-13,-17,-10,-7
1393,27,2,-3,3,1,-12,3,-9
1394,-10,-2,-2,6,1,-68,-32,-4
1395,-10,-2,-2,6,1,-68,-32,-4
1396,-43,-4,-1,-12,-22,4,0,-4
1397,-16,-1,-2,-11,66,37,54,2
1398,-16,-1,-2,-11,66,37,54,2
1399,9,1,-2,3,4,6,-5,-6
1400,9,1,-2,3,4,6,-5,-6
1401,1,1,-4,4,41,18,12,-3
1402,98,-5,-4,-27,-45,8,-61,8
1403,-8,-2,2,20,1,22,-3,-4
1404,-8,-2,2,20,1,22,-3,-4
1405,-8,1,-2,-1,-13,-2,5,-4
1406,-8,1,-2,-1,-13,-2,5,-4
1407,-30,1,3,14,55,-68,5,-3
1408,-30,1,3,14,55,-68,5,-3
1409,-30,1,3,14,55,-68,5,-3
1410,8,3,-6,-10,-3,-2,-10,3
1411,8,3,-6,-10,-3,-2,-10,3
1412,-8,-4,-1,-3,-20,-41,20,-5
1413,-5,1,0,-9,-37,36,23,8
1414,-6,-3,-1,-3,23,5,-15,4
1415,-6,-3,-1,-3,23,5,-15,4
1416,-39,-9,-6,-19,-51,-14,-17,1
1417,-39,-9,-6,-19,-51,-14,-17,1
1418,23,4,-1,-19,-41,14,7,-1
1419,23,4,-1,-19,-41,14,7,-1
1420,-19,-3,7,-17,16,41,50,4
1421,-19,-3,7,-17,16,41,50,4
1422,-5,-3,2,19,13,-8,20,-4
1423,-5,-3,2,19,13,-8,20,-4
1424,18,-5,-20,-43,-93,-62,-16,9
1425,18,-5,-20,-43,-93,-62,-16,9
1426,-19,7,1,24,66,1,7,-7
1427,-19,7,1,24,66,1,7,-7
1428,29,-1,-17,-12,35,-38,2,-6
1429,29,-1,-17,-12,35,-38,2,-6
1430,-5,2,14,29,-10,59,-5,-9
1431,-5,2,14,29,-10,59,-5,-9
1432,-2,-4,1,14,-33,3,-14,-11
1433,-2,-4,1,14,-33,3,-14,-11
1434,-2,-4,1,14,-33,3,-14,-11
1435,-48,-5,-1,17,58,0,-16,-12
1436,27,-1,-11,34,-39,9,-1,12
1437,-2,-1,-10,0,-44,42,-7,3
1438,5,8,9,-5,-65,0,-9,-1
1439,5,8,9,-5,-65,0,-9,-1
1440,13,6,-4,1,26,18,29,-5
1441,13,6,-4,1,26,18,29,-5
1442,6,-5,1,-2,33,29,-21,4
1443,7,0,5,29,20,6,9,8
1444,-46,-3,-3,-40,8,5,-23,0
1445,29,-2,-8,-7,-42,21,-11,-23
1446,29,-2,-8,-7,-42,21,-11,-23
1447,16,2,6,22,7,-8,21,6
1448,16,2,6,22,7,-8,21,6
1449,2,-4,6,2,-7,-31,-19,-1
1450,2,-4,6,2,-7,-31,-19,-1
1451,-59,0,-6,11,-17,-61,-9,4
1452,-59,0,-6,11,-17,-61,-9,4
1453,-59,0,-6,11,-17,-61,-9,4
1454,6,-1,2,11,10,7,23,5
1455,0,4,3,3,-6,-47,-60,2
1456,63,0,3,8,67,38,12,-2
1457,63,0,3,8,67,38,12,-2
1458,-1,2,4,-51,-48,-41,15,-7
1459,-1,2,4,-51,-48,-41,15,-7
1460,-13,2,6,20,1,5,31,3
1461,-13,2,6,20,1,5,31,3
1462,17,1,0,21,14,26,-74,-11
1463,17,1,0,21,14,26,-74,-11
1464,-26,-6,1,13,-63,-68,-6,4
1465,-26,-6,1,13,-63,-68,-6,4
1466,-5,-10,-1,-8,33,28,12,0
1467,53,-5,-4,-19,-15,-60,1,-1
1468,53,-5,-4,-19,-15,-60,1,-1
1469,53,-5,-4,-19,-15,-60,1,-1
1470,4,-3,-6,-18,-26,-43,-57,-8
1471,4,-3,-6,-18,-26,-43,-57,-8
1472,4,-3,-6,-18,-26,-43,-57,-8
1473,-15,-13,3,16,95,93,2,-1
1474,22,-3,-10,-5,-29,31,-29,-1
1475,-4,-3,-5,-13,25,18,15,5
1476,-4,-3,-5,-13,25,18,15,5
1477,-2,4,3,-10,-41,-41,-10,8
1478,-2,4,3,-10,-41,-41,-10,8
1479,-6,-2,-2,-21,-46,-30,0,13
1480,32,-2,2,11,46,55,25,0
1481,-34,1,-7,-20,-25,18,29,-6
1482,-34,1,-7,-20,-25,18,29,-6
1483,9,2,-4,-3,-23,-85,0,-7
1484,9,2,-4,-3,-23,-85,0,-7
1485,18,-1,6,-7,-48,-26,-22,2
1486,10,-2,-2,15,3,-9,0,0
1487,-8,3,-5,18,11,43,18,-9
1488,-8,3,-5,18,11,43,18,-9
1489,27,-10,-4,-3,2,-2,6,-4
1490,27,-10,-4,-3,2,-2,6,-4
1491,-28,3,1,2,-40,-22,4,3
1492,12,2,4,20,39,10,9,1
1493,12,2,4,20,39,10,9,1
1494,15,1,0,6,22,37,5,2
1495,-7,1,0,-11,-16,-13,-20,-1
1496,-7,1,0,-11,-16,-13,-20,-1
1497,-7,1,0,-11,-16,-13,-20,-1
1498,14,-6,-7,1,-4,-3,3,-5
1499,9,3,5,-2,52,-20,-6,-1
1500,9,3,5,-2,52,-20,-6,-1
1501,4,1,-3,12,64,39,-21,-1
1502,4,1,-3,12,64,39,-21,-1
1503,-4,6,3,10,20,15,-16,-4
1504,-4,6,3,10,20,15,-16,-4
1505,-15,-1,-4,-3,5,-21,16,8
1506,-15,-1,-4,-3,5,-21,16,8
1507,-19,-6,-8,-38,-19,-9,4,-3
1508,-19,-6,-8,-38,-19,-9,4,-3
1509,-20,-4,-3,1,-14,5,5,8
1510,-20,-4,-3,1,-14,5,5,8
1511,-20,-4,-3,1,-14,5,5,8
1512,-2,1,7,-2,-22,34,40,1
1513,23,3,-8,21,-3,33,-6,0
1514,23,3,-8,21,-3,33,-6,0
1515,0,9,8,3,-29,-22,-19,-10
1516,0,9,8,3,-29,-22,-19,-10
1517,-31,-6,-9,9,-6,5,-5,5
1518,-4,2,3,-14,-9,-31,-11,-3
1519,-9,-1,-10,-6,-17,-14,-7,5
1520,-9,-1,-10,-6,-17,-14,-7,5
1521,16,-5,1,6,22,47,38,-1
1522,16,-5,1,6,22,47,38,-1
1523,5,-4,-14,-10,6,1,6,4
1524,5,-4,-14,-10,6,1,6,4
1525,-3,2,0,11,16,13,9,-11
1526,-29,-5,-1,17,15,-16,-3,-1
1527,24,7,8,-5,51,-74,37,-14
1528,24,7,8,-5,51,-74,37,-14
1529,24,7,8,-5,51,-74,37,-14
1530,2,-5,3,8,-2,24,-16,-2
1531,11,1,1,29,51,-53,-44,0
1532,11,1,1,29,51,-53,-44,0
1533,11,1,1,29,51,-53,-44,0
1534,11,1,1,29,51,-53,-44,0
1535,3,0,3,10,-7,77,-11,-4
1536,-5,2,7,5,-2,6,1,6
1537,66,-5,0,-2,-12,6,5,-12
1538,-7,-3,-11,-16,-80,44,0,2
1539,-3,1,2,-1,-2,1,-4,4
1540,-3,1,2,-1,-2,1,-4,4
1541,-3,1,2,-1,-2,1,-4,4
1542,-3,-3,0,-26,-25,-21,-36,16
1543,-4,1,-2,-15,-28,-69,40,6
1544,-23,-6,6,12,-44,-27,-33,5
1545,-23,-6,6,12,-44,-27,-33,5
1546,17,-3,-4,3,7,-1,21,1
1547,-2,-6,-10,-6,30,13,59,0
1548,-2,-6,-10,-6,30,13,59,0
1549,24,-1,2,-24,-18,-105,-14,2
1550,24,-1,2,-24,-18,-105,-14,2
1551,-2,6,7,13,43,38,-14,-17
1552,-2,6,7,13,43,38,-14,-17
1553,-31,-7,-9,-60,-43,46,-10,-2
1554,-9,-4,-5,16,12,14,57,-4
1555,-9,-4,-5,16,12,14,57,-4
1556,-9,-4,-5,16,12,14,57,-4
1557,-4,-3,4,30,5,-37,-34,-7
1558,22,-6,4,11,10,-13,21,-9
1559,6,0,4,-29,-38,39,6,1
1560,6,0,4,-29,-38,39,6,1
1561,-3,-4,1,17,-1,-10,-16,3
1562,-3,-4,1,17,-1,-10,-16,3
1563,-3,3,-1,2,-11,-14,-28,1
1564,-7,1,-10,15,41,30,43,0
1565,11,4,1,2,1,19,-12,6
1566,-30,1,6,14,8,5,4,-2
1567,-30,1,6,14,8,5,4,-2
1568,-30,1,6,14,8,5,4,-2
1569,5,1,0,-15,-31,16,24,5
1570,-18,3,3,-19,-67,-15,-3,6
1571,-11,0,1,19,27,30,-7,-11
1572,-11,0,1,19,27,30,-7,-11
1573,-29,-1,-5,-13,-11,62,11,1
1574,-29,-1,-5,-13,-11,62,11,1
1575,4,-7,-6,7,-28,-29,-49,-2
1576,11,-13,1,-53,-41,-72,-20,13
1577,5,-5,-3,6,21,-42,-3,4
1578,-10,-5,-2,-5,6,-5,-19,-4
1579,-10,-5,-2,-5,6,-5,-19,-4
1580,9,1,-2,6,2,-54,1,1
1581,-11,0,2,-30,3,-2,18,2
1582,28,2,3,4,1,-2,-8,-7
1583,28,2,3,4,1,-2,-8,-7
1584,4,4,0,-4,-49,-50,23,6
1585,4,4,0,-4,-49,-50,23,6
1586,-6,-4,2,-1,29,57,-30,-1
1587,-8,5,2,2,25,11,3,5
1588,-8,5,2,2,25,11,3,5
1589,-10,-4,-3,4,36,-24,9,-5
1590,-12,3,5,-50,-41,13,9,-5
1591,-4,-5,-4,5,21,1,32,2
1592,24,1,1,-6,-5,11,-9,-5
1593,24,1,1,-6,-5,11,-9,-5
1594,24,1,1,-6,-5,11,-9,-5
1595,-12,13,-1,36,71,14,16,-15
1596,-15,-3,2,-6,-8,7,1,6
1597,-15,-3,2,-6,-8,7,1,6
1598,25,9,-5,7,1,-8,8,-5
1599,25,9,-5,7,1,-8,8,-5
1600,24,-2,3,5,-1,44,-15,10
1601,24,-2,3,5,-1,44,-15,10
1602,-1,-8,2,-35,-28,-1,12,1
1603,-6,-11,1,15,12,21,16,-11
1604,-31,-8,-10,-89,-110,-32,-25,-2
1605,-31,-8,-10,-89,-110,-32,-25,-2
1606,6,-2,-4,21,27,-16,-14,-7
1607,6,-2,-4,21,27,-16,-14,-7
1608,-21,-3,1,-7,-6,1,-3,-4
1609,28,-1,0,16,28,-17,-2,-9
1610,36,-2,2,-13,-24,-107,1,13
1611,1,-3,-3,17,10,-17,-4,-1
1612,-19,-1,-1,12,7,1,26,-3
1613,-19,-1,-1,12,7,1,26,-3
1614,-20,1,1,4,-7,37,-16,-3
1615,-20,1,1,4,-7,37,-16,-3
1616,6,7,1,13,18,62,2,-8
1617,6,7,1,13,18,62,2,-8
1618,6,7,1,13,18,62,2,-8
1619,-47,-7,-3,16,6,27,13,2
1620,-47,-7,-3,16,6,27,13,2
1621,-23,-5,-3,11,41,7,12,-12
1622,-6,4,3,-25,-16,-41,19,8
1623,2,-3,5,-6,-14,-23,25,5
1624,2,-3,5,-6,-14,-23,25,5
1625,14,-2,-2,29,76,17,-10,-1
1626,14,-2,-2,29,76,17,-10,-1
1627,18,-12,0,-16,-34,11,-3,4
1628,18,-12,0,-16,-34,11,-3,4
1629,-5,4,3,18,20,32,12,-14
1630,-5,4,3,18,20,32,12,-14
1631,-9,-7,-5,-2,-71,32,-13,4
1632,-20,-3,1,-4,-12,16,3,8
1633,13,4,2,-10,5,-8,8,0
1634,-8,-4,1,26,0,-4,36,-1
1635,17,8,-22,10,13,-27,-21,-3
1636,12,-2,-4,-35,-65,-9,13,-1
1637,12,-2,-4,-35,-65,-9,13,-1
1638,47,4,3,10,20,-34,76,0
1639,-11,1,4,-23,14,-60,-28,-1
1640,16,-2,5,19,24,6,-25,2
1641,9,-5,7,12,11,9,-35,-8
1642,9,-5,7,12,11,9,-35,-8
1643,-4,3,8,21,33,34,-9,-5
1644,-8,1,-2,21,7,-26,9,-5
1645,-18,5,7,4,15,25,0,-2
1646,-18,5,7,4,15,25,0,-2
1647,-19,-4,-1,26,29,27,-6,-1
1648,-19,-4,-1,26,29,27,-6,-1
1649,-3,-5,2,-4,-38,39,-4,5
1650,-5,-1,-3,18,-17,-26,0,-3
1651,3,-3,0,1,7,-77,16,4
1652,-16,-6,-7,-10,-11,-31,14,-8
1653,-16,-6,-7,-10,-11,-31,14,-8
1654,-16,-6,-7,-10,-11,-31,14,-8
1655,24,4,0,0,26,14,11,-3
1656,-8,-1,7,27,-17,7,-9,3
1657,-8,-1,7,27,-17,7,-9,3
1658,-8,-1,7,27,-17,7,-9,3
1659,13,1,-5,7,-12,-19,-1,1
1660,-11,-14,-13,4,26,32,-37,-15
1661,-12,-3,-4,0,31,60,-4,0
1662,-12,-3,-4,0,31,60,-4,0
1663,-4,-1,-2,-13,-37,-11,-17,1
1664,-4,-1,-2,-13,-37,-11,-17,1
1665,9,-1,-2,-40,-7,-27,-31,-4
1666,9,-1,-2,-40,-7,-27,-31,-4
1667,-20,-4,-6,-11,-55,46,-12,-1
1668,6,-4,2,-19,-20,-5,0,4
1669,15,2,-3,10,26,4,33,1
1670,15,2,-3,10,26,4,33,1
1671,37,1,-3,21,31,-62,2,2
1672,37,1,-3,21,31,-62,2,2
1673,-19,-2,-1,-6,47,17,-18,5
1674,-19,-2,-1,-6,47,17,-18,5
1675,1,0,-4,-27,3,-2,-4,-2
1676,1,0,-4,-27,3,-2,-4,-2
1677,-42,2,5,-6,-26,1,-6,0
1678,-42,2,5,-6,-26,1,-6,0
1679,10,-1,0,-17,16,4,10,-1
1680,10,-1,0,-17,16,4,10,-1
1681,10,-1,0,-17,16,4,10,-1
1682,26,-3,2,7,8,-58,4,4
1683,26,-3,2,7,8,-58,4,4
1684,26,-3,2,7,8,-58,4,4
1685,26,-3,2,7,8,-58,4,4
1686,10,-6,-1,10,-21,7,-3,4
1687,10,-6,-1,10,-21,7,-3,4
1688,10,-6,-1,10,-21,7,-3,4
1689,-17,-3,-3,6,4,40,21,-7
1690,-19,0,0,20,-12,36,-17,-2
1691,-19,0,0,20,-12,36,-17,-2
1692,4,1,-5,0,37,-1,16,-5
1693,4,1,-5,0,37,-1,16,-5
1694,4,-1,-4,-10,-34,-47,-23,0
1695,-10,-3,4,-16,-21,-34,7,8
1696,22,1,8,-8,6,-26,-39,-1
1697,10,-6,-4,10,32,0,-6,6
1698,-5,-3,3,-9,-15,33,-9,3
1699,-5,-3,3,-9,-15,33,-9,3
1700,0,2,-4,14,17,-8,34,0
1701,-18,3,-6,-29,-90,-33,12,-15
1702,-20,2,-2,-11,7,15,6,-4
1703,-20,2,-2,-11,7,15,6,-4
1704,-8,3,1,13,2,11,24,-3
1705,-8,3,1,13,2,11,24,-3
1706,-6,-7,2,-12,-6,24,31,8
1707,-5,-1,1,0,18,29,13,-2
1708,-52,-2,-6,-6,-35,-49,-49,-6
1709,-52,-2,-6,-6,-35,-49,-49,-6
1710,33,-6,-12,-13,-33,43,22,8
1711,33,-6,-12,-13,-33,43,22,8
1712,-32,-2,-2,15,33,11,-11,-4
1713,-32,-2,-2,15,33,11,-11,-4
1714,-6,-3,2,23,-1,18,-37,-4
1715,-6,-3,2,23,-1,18,-37,-4
1716,-8,-8,1,-12,-39,-95,-68,0
1717,-4,-2,2,8,11,-29,-7,-5
1718,24,1,-8,-17,7,-29,16,3
1719,-6,-8,-13,-11,0,21,-1,-4
1720,-45,-3,-5,-55,-37,41,-2,14
1721,-14,-8,1,-13,-10,19,-7,15
1722,5,0,-1,13,18,-17,2,-13
1723,5,0,-1,13,18,-17,2,-13
1724,18,5,1,1,63,-30,15,-2
1725,14,8,3,-29,-95,46,13,-5
1726,-8,3,8,-8,-37,-15,-4,8
1727,8,4,5,11,11,-24,3,-1
1728,8,4,5,11,11,-24,3,-1
1729,4,-5,-5,-22,10,54,-13,-10
1730,4,-5,-5,-22,10,54,-13,-10
1731,-1,9,1,6,3,28,59,-6
1732,-1,9,1,6,3,28,59,-6
1733,10,-8,3,-17,-39,-43,-26,6
1734,10,-8,3,-17,-39,-43,-26,6
1735,10,-8,3,-17,-39,-43,-26,6
1736,-10,-4,0,7,-24,-81,-63,-7
1737,19,3,-2,-9,-22,-4,6,4
1738,19,3,-2,-9,-22,-4,6,4
1739,17,-2,-7,1,-55,13,-1,2
1740,-7,8,3,3,28,8,-1,-7
1741,-7,8,3,3,28,8,-1,-7
1742,12,-1,-2,17,38,14,58,-4
1743,12,-1,-2,17,38,14,58,-4
1744,-10,-2,2,15,42,16,20,-4
1745,-10,-2,2,15,42,16,20,-4
1746,34,-2,-1,-9,25,35,14,-3
1747,5,-1,0,4,-28,-29,-12,-3
1748,5,-1,0,4,-28,-29,-12,-3
1749,24,1,-4,3,-25,-1,-8,1
1750,-1,2,-7,-16,0,-7,-12,-1
1751,52,-2,3,3,12,29,-11,1
1752,52,-2,3,3,12,29,-11,1
1753,16,2,4,2,-24,-35,-11,1
1754,16,2,4,2,-24,-35,-11,1
1755,-33,-4,-2,6,3,12,-13,-1
1756,2,-2,2,-6,-101,-65,7,-8
1757,-10,-3,-1,-7,-2,-3,-13,8
1758,-10,-3,-1,-7,-2,-3,-13,8
1759,5,-1,4,-6,-34,4,8,2
1760,5,-1,4,-6,-34,4,8,2
1761,-29,-4,-6,-4,8,21,4,1
1762,-29,-4,-6,-4,8,21,4,1
1763,-4,-3,6,8,-16,-30,10,0
1764,12,5,-6,-7,10,-9,-44,-3
1765,19,-3,-2,-1,3,15,17,8
1766,19,-3,-2,-1,3,15,17,8
1767,19,-3,-2,-1,3,15,17,8
1768,-12,-1,4,2,14,0,3,-6
1769,-12,-1,4,2,14,0,3,-6
1770,-30,-2,-6,-4,11,4,5,12
1771,-4,-3,-7,-20,-5,12,2,-9
1772,-4,-3,-7,-20,-5,12,2,-9
1773,2,-1,-3,-22,-77,-51,-42,-10
1774,2,-1,-3,-22,-77,-51,-42,-10
1775,-13,3,-2,1,45,14,7,-1
1776,-11,9,2,3,-15,3,2,-2
1777,23,0,8,10,12,-1,-4,7
