time,emg1,emg2,emg3,emg4,emg5,emg6,emg7,emg8
0,24.649543606322613,12.751470503436064,2.23606797749979,20.149441679609886,18.69759342803239,32.239727045990946,23.01303978182804,27.65140141114009
1,19.0,1.0,2.0,9.0,65.0,24.0,44.0,4.0
2,24.702226620286684,10.305338422390601,2.8284271247461903,3.82099463490856,20.37154878746336,31.11269837220809,10.825894882179487,9.0
3,11.313708498984761,11.180339887498949,2.23606797749979,2.8284271247461903,12.649110640673518,6.4031242374328485,10.478549517943788,6.826419266350405
4,10.954451150103322,9.444575162494075,1.0954451150103321,2.8635642126552705,9.444575162494075,45.3629805017263,20.054924582256596,11.593101396951552
5,18.439088914585774,7.37563556583431,1.8439088914585775,4.8166378315169185,16.619265928433784,6.44980619863884,13.601470508735444,8.0
6,53.47709790181214,11.349008767288886,5.513619500836088,11.738824472663351,12.83744522870497,26.183964558485027,14.771594362153328,7.05691150575094
7,2.6457513110645907,6.884765791223402,3.521363372331802,7.26636084983398,32.4037034920393,54.07217398995532,27.14037582643247,6.0
8,30.463092423455635,21.840329667841555,5.813776741499453,18.088670487352022,15.80506248010428,14.560219778561036,17.017637908946117,4.47213595499958
9,26.743223440714846,4.494441010848846,3.0,23.026072179162473,10.583005244258363,25.310077044529123,17.146428199482248,11.480418110852932
10,26.84399374161751,4.494441010848846,1.8973665961010275,6.371812928829597,11.135528725660043,48.22240143335875,18.16590212458495,10.583005244258363
11,14.567086187704115,9.528903399657276,3.22490309931942,3.1622776601683795,34.42382895611701,26.21831420972752,8.532291603080617,5.039841267341661
12,8.532291603080617,2.8284271247461903,2.23606797749979,2.4899799195977463,24.380319932273242,23.566925976885486,29.73550066839299,4.669047011971501
13,23.70232056149777,6.0,2.8284271247461903,20.64945519862449,31.20256399721023,51.92494583531118,22.627416997969522,8.35463942968217
14,5.440588203494177,20.823064135712592,4.123105625617661,6.942621983083913,16.589153082662175,44.10215414239989,37.886673118657434,11.636150566231086
15,36.0,7.0,3.0,3.0,21.0,14.0,17.0,11.0
16,20.52802961806125,13.03073290340954,3.286335345030997,10.14889156509222,19.188538245525635,49.483330526552066,33.34966266695962,7.0710678118654755
17,12.806248474865697,14.449913494550755,1.7888543819998317,28.635642126552707,7.211102550927978,22.80350850198276,26.548069609672186,6.81175454637056
18,16.804761230080004,10.401922899156675,5.059644256269407,7.848566748139434,22.851695779525862,23.400854685246006,66.86104994688611,4.1952353926806065
19,13.892443989449804,4.312771730569565,4.47213595499958,14.092551223962253,12.13260071048248,15.381807436059,55.03816857418131,3.3763886032268267
20,17.538529014715003,5.865151319446072,4.753945729601885,16.81071087134628,16.601204775557708,13.784048752090222,36.4417343165772,2.5298221281347035
21,12.860793132618221,8.87693640846886,4.449719092257398,18.88385553852814,12.704329970525798,16.53481176185565,22.706827167175955,4.049691346263317
22,21.066561181170506,12.984606270503546,3.6606010435446255,1.9493588689617927,12.946041866145807,38.54088737950905,49.86581995716104,7.707139547199077
23,53.689850064979694,14.539601094940673,5.366563145999495,42.72938099247402,13.63084736911099,48.02291119871847,33.31366086157449,3.3763886032268267
24,51.24646329260196,17.759504497592268,6.603029607687671,12.288205727444508,8.888194417315589,24.774987386475093,18.734993995195193,5.674504383644443
25,29.15132930073687,14.127986409959489,4.898979485566356,10.723805294763608,34.2870237845165,22.172054483064937,14.394443372357264,6.276941930590086
26,9.929753269845127,9.433981132056603,7.211102550927978,52.0,66.37017402418047,15.264337522473747,37.0648081068822,2.8635642126552705
27,13.935566009315876,6.244997998398398,1.6733200530681511,5.138093031466052,16.607227342335023,14.66287829861518,45.66618004606911,3.1937438845342623
28,21.840329667841555,20.64945519862449,5.813776741499453,31.34645115479582,21.208488866489287,54.57655174156755,78.74642849044012,5.0
29,12.561846997953765,8.426149773176359,4.09878030638384,31.103054512378684,41.94043395102154,26.130442016927304,49.59032163638385,4.494441010848846
30,23.719190542680835,7.92464510246358,1.7888543819998317,6.587867636800241,21.822007240398396,32.2893171188243,47.795397267937844,5.60357029044876
31,18.204395073717773,13.319159132617944,2.0,7.496665925596525,16.049922118191105,32.81463088318989,39.62827273551044,5.916079783099616
32,18.504053609952603,11.61895003862225,4.0,5.0,4.449719092257398,20.1791972090071,74.69404260046446,14.071247279470288
33,18.793615937333612,6.276941930590086,1.4142135623730951,10.862780491200215,24.16195356340211,52.75604230796696,41.85928809714757,1.0
34,19.79898987322333,7.563068160475615,2.0,15.974980438172686,29.57363690857112,13.564659966250536,7.280109889280518,2.5298221281347035
35,21.04281350010022,13.978555004005242,3.714835124201342,10.927030703718188,19.519221295943137,28.705400188814647,12.727922061357855,2.898275349237888
36,20.263267258761605,10.83512805646523,3.0,3.605551275463989,22.122386851332294,31.36239786751007,64.0531029693332,1.61245154965971
37,27.2910241654651,7.899367063252599,3.1622776601683795,15.652475842498529,14.791889669680478,25.440125785852555,62.67375846396959,5.422176684690384
38,7.64198926981712,5.366563145999495,1.61245154965971,2.6832815729997477,34.132096331752024,12.553883861180172,61.73005750847799,5.0
39,38.181147180251145,19.43193248238579,2.4083189157584592,19.621416870348583,21.582400237230335,22.66715685744465,18.69759342803239,9.518403227432634
40,34.99714274051526,7.113367697511496,2.8284271247461903,31.899843259803017,23.06078923194087,27.81366570590795,8.402380615040002,2.8284271247461903
41,38.40572873934304,14.226735395022992,4.1952353926806065,6.212889826803627,23.008694009004508,11.16243700990066,34.420923869065454,2.5298221281347035
42,14.142135623730951,10.63014581273465,4.560701700396552,16.401219466856727,14.422205101855956,0.8944271909999159,33.85852920609518,1.0
43,14.812157169028419,14.422205101855956,4.494441010848846,15.264337522473747,16.619265928433784,13.885243966167826,54.059226779523954,2.8284271247461903
44,22.09524835796149,1.7888543819998317,1.0,2.23606797749979,6.767569726275452,15.646085772486357,24.166091947189145,7.64198926981712
45,8.54400374531753,5.215361924162119,3.5777087639996634,7.496665925596525,6.0,31.761612049768505,37.36308338453881,2.4083189157584592
46,7.912016177940993,9.219544457292887,2.04939015319192,5.882176467941097,8.843076387773658,33.75203697556638,8.18535277187245,6.6932802122726045
47,60.061635009380154,4.47213595499958,2.23606797749979,19.75854245636555,13.48332303254654,14.007141035914502,26.847718711279736,9.044335243676011
48,17.458522274236156,6.465291950097845,2.23606797749979,2.5298221281347035,12.617448236470002,34.002941049268074,28.89982698910151,6.29285308902091
49,26.68332812825267,5.813776741499453,2.4083189157584592,4.123105625617661,26.68332812825267,34.48187929913333,4.753945729601885,4.753945729601885
50,9.674709297958259,9.154233993076646,3.3763886032268267,4.753945729601885,10.237187113655782,37.16180835212409,13.274034804836093,3.4351128074635335
51,22.16303228351211,4.8166378315169185,0.7745966692414834,2.4899799195977463,16.893785839769603,48.11652522782583,35.65389179318297,3.255764119219941
52,31.830802691732423,8.955445270895245,0.4472135954999579,4.795831523312719,6.587867636800241,46.961686511453145,34.58612438536588,3.1937438845342623
53,36.7396243856684,7.848566748139434,2.3664319132398464,11.180339887498949,10.917875251164945,43.993181289831725,41.407728747179554,4.47213595499958
54,23.29806858947754,18.72431574183687,1.4832396974191326,5.674504383644443,25.219040425836983,35.98055030151707,27.342274960214997,2.569046515733026
55,28.0,7.64198926981712,2.0,4.560701700396552,22.20360331117452,9.602083107326242,21.63792966066763,3.5777087639996634
56,21.93171219946131,18.05547008526779,4.123105625617661,5.674504383644443,11.840608092492547,14.99333185119305,24.302263269086687,1.5491933384829668
57,13.63084736911099,24.613004692641653,5.531726674375733,6.212889826803627,35.91378565397972,9.219544457292887,16.97056274847714,1.61245154965971
58,5.674504383644443,16.607227342335023,2.6457513110645907,6.0,5.403702434442518,10.545141061171254,22.045407685048602,0.7745966692414834
59,31.333687941255814,12.181953866272849,2.7202941017470885,7.26636084983398,21.302582003128165,14.825653442597396,8.579044235810887,5.60357029044876
60,34.0117626711701,13.038404810405298,1.9493588689617927,4.753945729601885,11.40175425099138,25.083859352181037,29.566873355158812,4.0
61,36.146922413948325,8.977750274985375,2.6832815729997477,6.54217089351845,18.75633226406485,30.502458917274193,24.306377763870945,3.6606010435446255
62,38.07623931009994,17.458522274236156,3.286335345030997,3.5777087639996634,5.813776741499453,40.74555190447173,34.202339101295394,8.270429251254134
63,23.426480742954116,15.504837954651444,0.0,8.62554346113913,31.622776601683793,39.827126434127784,39.603030187095534,3.924283374069717
64,38.309267808194924,14.042791745233567,0.8944271909999159,6.324555320336759,19.235384061671343,35.4259791678367,31.06766808114185,7.113367697511496
65,9.818350166906862,5.118593556827891,5.0,3.924283374069717,2.0,43.49942528355978,13.349157276772193,2.0
66,9.402127418834526,6.276941930590086,2.32379000772445,2.932575659723036,5.796550698475776,30.83828789021855,35.21647341799005,3.9496835316262997
67,6.6932802122726045,12.497999839974394,4.219004621945797,8.955445270895245,22.93468988235943,35.888716889852724,22.895414388038493,2.4083189157584592
68,18.825514601200148,11.755849607748475,3.1304951684997055,12.083045973594572,16.31563667161046,49.006122066533685,32.00937362711117,1.0954451150103321
69,19.51409746824075,12.58570617804182,3.492849839314596,3.924283374069717,6.387487769068525,46.74398357008097,25.973062969160953,4.795831523312719
70,17.349351572897472,4.604345773288535,5.118593556827891,1.61245154965971,2.569046515733026,12.37739875741264,30.466374907428683,4.381780460041329
71,26.088311559010485,7.563068160475615,2.6457513110645907,16.30950643030009,8.136338242723197,24.673872821265817,29.691749695833018,4.024922359499621
72,9.674709297958259,6.985699678629192,1.4142135623730951,3.3466401061363023,3.03315017762062,13.638181696985855,25.80697580112788,1.9493588689617927
73,18.384776310850235,7.3484692283495345,2.4899799195977463,6.526867548832288,18.21537811850196,30.189402113986954,37.67757954009254,3.3763886032268267
74,25.083859352181037,15.139352694220449,1.6733200530681511,13.408952233489387,28.046390142048583,42.15447781671598,41.7444607103745,8.330666239863412
75,17.555625878902752,19.447364860052378,3.255764119219941,11.50651989091402,20.847062143141418,20.208908926510603,18.75633226406485,8.54400374531753
76,28.83400769924292,20.493901531919196,2.0,10.779610382569492,17.509997144488633,16.112107248898266,20.37154878746336,7.0
77,20.97617696340303,13.572030061858838,1.61245154965971,3.847076812334269,17.458522274236156,14.771594362153328,41.0731055558257,5.709640969448079
78,18.487833837418595,17.064583206161235,2.8284271247461903,10.10940156488009,12.68857754044952,26.034592372457073,14.212670403551895,4.732863826479693
79,20.59611613872868,8.648699324175862,2.6832815729997477,5.059644256269407,14.744490496453244,40.34104609451768,44.80624956409541,4.6475800154489
80,24.124676163629637,9.316651759081692,2.04939015319192,5.0,2.9664793948382653,4.09878030638384,22.684796670898333,3.63318042491699
81,16.751119365582706,7.602631123499285,3.492849839314596,4.604345773288535,15.830350596243912,32.32027227608084,28.44644090215857,6.212889826803627
82,9.612491872558333,5.882176467941097,0.6324555320336759,6.971370023173351,12.24744871391589,9.612491872558333,7.0,5.0
83,8.294576541331088,17.175564037317667,2.5298221281347035,5.5677643628300215,24.298148077579903,26.015380066414558,35.38078574593843,2.6457513110645907
84,18.226354544998845,25.756552564347583,4.427188724235731,6.0,23.61778990506944,8.0,28.74021572639983,6.48074069840786
85,16.558985476169727,17.314733610425545,2.7202941017470885,7.523297149521611,20.73644135332772,27.989283663573815,46.049972855583746,2.8284271247461903
86,17.640861656959956,7.042726744663604,2.0,3.63318042491699,15.05323885414697,27.110883423451916,32.37282811247729,7.127411872482185
87,18.066543665017942,8.461678320522472,2.0976176963403033,7.113367697511496,4.312771730569565,14.317821063276353,29.556725123057866,10.315037566582102
88,5.744562646538029,23.528705871764387,7.615773105863909,7.0,5.422176684690384,53.0,61.78187436457395,1.8973665961010275
89,24.07072911234722,9.486832980505138,4.242640687119285,5.5677643628300215,8.54400374531753,32.67108813614876,31.28258301355564,5.656854249492381
90,19.406184581210187,8.366600265340756,2.6457513110645907,1.2649110640673518,16.186414056238647,19.03155274800246,10.069756700139283,1.0
91,30.623520372419627,5.176871642217914,3.605551275463989,3.794733192202055,10.039920318408907,43.41658669218482,18.21537811850196,2.32379000772445
92,11.815244390193543,4.09878030638384,2.1908902300206643,3.794733192202055,11.313708498984761,18.226354544998845,23.52020408074726,6.648308055437865
93,21.203773249117717,9.6850400102426,2.1908902300206643,5.0990195135927845,16.211107303327555,38.97435053981015,40.7332787779231,4.795831523312719
94,15.198684153570664,19.03155274800246,4.449719092257398,1.6733200530681511,21.0,5.291502622129181,16.278820596099706,2.04939015319192
95,22.284523777725205,4.0743097574926725,3.6606010435446255,2.8284271247461903,12.288205727444508,3.687817782917155,30.49918031685442,2.6457513110645907
96,13.682105101189656,18.788294228055936,2.23606797749979,7.211102550927978,6.082762530298219,14.422205101855956,9.121403400793104,0.4472135954999579
97,10.564090116995406,2.0,2.0,5.385164807134504,15.678010077812809,10.788883167408942,20.479257799051215,2.32379000772445
98,14.0,7.615773105863909,2.280350850198276,4.753945729601885,14.812157169028419,17.041126723312633,20.952326839756964,2.32379000772445
99,3.40587727318528,15.42076522096099,3.4351128074635335,4.024922359499621,13.03073290340954,11.480418110852932,28.96894889359985,3.3466401061363023
100,14.906374475371265,10.705138952858109,2.280350850198276,3.9496835316262997,6.48074069840786,23.095454098155333,27.302014577682723,6.6783231428256
101,10.401922899156675,8.555699854482976,2.6457513110645907,4.626013402488151,3.1937438845342623,29.60067566796407,16.76305461424021,5.079370039680118
102,27.451775898837585,11.419281938896159,4.427188724235731,3.22490309931942,29.966648127543394,65.0353749893087,61.17025420905164,8.390470785361213
103,22.126906697502932,13.45362404707371,3.687817782917155,5.176871642217914,13.740451229854134,10.469001862641921,17.406895185529212,1.4832396974191326
104,23.605084198112916,9.412757300600074,2.0,3.286335345030997,7.402702209328699,43.02092514114498,30.22912502868715,1.4832396974191326
105,16.39512122553536,7.962411694957753,1.2649110640673518,2.04939015319192,33.31366086157449,19.498717906570164,55.50495473378931,4.69041575982343
106,7.758865896508329,4.878524367060187,4.266145801540309,4.732863826479693,7.321202087089251,32.655780499017325,15.12613632095123,2.32379000772445
107,34.790803382503256,5.385164807134504,2.3664319132398464,3.255764119219941,7.402702209328699,22.15851980616034,23.85791273351464,5.813776741499453
108,21.4895323355349,15.728954192825409,6.260990336999411,4.123105625617661,18.270194306574847,19.697715603592208,10.08959860450355,5.0
109,22.144976857066254,6.587867636800241,0.4472135954999579,5.0,26.309694030908076,31.333687941255814,10.79814798935447,1.61245154965971
110,19.28730152198591,14.866068747318506,4.266145801540309,4.898979485566356,8.694826047713663,28.36194633659686,3.794733192202055,0.4472135954999579
111,12.720062892926277,13.65283853270081,4.979959839195493,4.494441010848846,26.26404386228442,22.09524835796149,22.891046284519195,4.0
112,15.039946808416577,8.921883209278185,3.1622776601683795,3.0,15.830350596243912,30.367746047410236,39.56260860964555,4.69041575982343
113,32.60981447355995,17.787636155487327,2.4083189157584592,5.079370039680118,7.389181280764467,12.433824833895642,11.072488428533127,5.329165037789691
114,28.48508381592022,9.444575162494075,0.6324555320336759,6.016643582596529,7.861297602813418,9.055385138137417,19.16768113257313,5.60357029044876
115,14.422205101855956,7.496665925596525,1.2649110640673518,5.0,6.324555320336759,25.14358765172544,29.624314338056838,3.22490309931942
116,18.04993074778959,14.127986409959489,3.605551275463989,5.403702434442518,21.540659228538015,12.976902558006667,26.962937525425527,4.266145801540309
117,12.361229712289955,9.08845421400141,3.4351128074635335,3.847076812334269,17.45279347267938,22.081666603768838,18.226354544998845,5.656854249492381
118,14.966629547095765,5.865151319446072,2.4083189157584592,7.912016177940993,5.656854249492381,12.497999839974394,18.681541692269406,3.5496478698597698
119,14.212670403551895,3.0983866769659336,1.0,2.9664793948382653,2.6457513110645907,10.583005244258363,12.537942414925983,1.8973665961010275
120,49.120260585628,14.98666073546739,4.0743097574926725,6.356099432828281,10.535653752852738,12.016655108639842,24.783058729704855,4.959838707054898
121,26.981475126464083,5.674504383644443,3.924283374069717,7.0992957397195395,11.907980517283358,22.68038800373574,20.605824419323774,2.04939015319192
122,65.46449419341755,8.888194417315589,1.0,7.655063683601855,23.5457002444183,8.729261137118078,9.38083151964686,9.252026804976301
123,30.71807285621935,12.24744871391589,1.61245154965971,2.898275349237888,12.77497553813705,14.683323874382122,5.916079783099616,4.0
124,19.651971911235776,4.6475800154489,2.449489742783178,4.09878030638384,14.785127662620976,18.21537811850196,11.099549540409287,1.8439088914585775
125,14.51895313030523,6.340346993658944,2.932575659723036,3.714835124201342,23.09112383579457,17.82133552795637,35.29305880764658,1.8439088914585775
126,13.319159132617944,15.678010077812809,1.2649110640673518,2.04939015319192,35.25053191088043,54.3415126767741,32.781092111154564,1.2649110640673518
127,10.807404868885037,5.966573556070519,3.4351128074635335,3.1937438845342623,14.730919862656235,20.644611887851028,33.292641829689636,4.919349550499537
128,24.94794580722028,14.310835055998654,2.7202941017470885,8.35463942968217,16.15549442140351,20.024984394500787,25.628109567426154,9.0
129,34.24032710124131,5.966573556070519,3.3466401061363023,5.882176467941097,26.970354094820483,8.567379996241558,22.47220505424423,2.1447610589527217
130,39.96498467408689,10.246950765959598,2.6457513110645907,7.0,14.730919862656235,32.6527181104422,21.038060747131613,4.626013402488151
131,21.12818023399081,9.633275663033837,0.0,2.8635642126552705,19.256167843057455,18.504053609952603,24.661711213944585,9.2951600308978
132,13.446189051177289,12.89961239727768,4.47213595499958,11.704699910719626,17.204650534085253,13.535139452550904,13.152946437965905,8.988882021697693
133,15.556349186104045,11.0,2.6457513110645907,5.176871642217914,13.98570698963767,14.401388821915754,15.093044755780724,9.06642156531451
134,13.16054710108968,21.0,2.6457513110645907,4.69041575982343,17.35511451993331,33.60059523282288,21.60092590608097,2.6457513110645907
135,29.0,3.0,1.0,9.0,12.0,33.0,11.0,7.0
136,17.725687574816384,11.489125293076057,2.6457513110645907,1.0,12.751470503436064,31.35920917370207,26.115129714401192,5.0
137,39.70390409015214,13.243866504914644,3.924283374069717,2.4083189157584592,3.687817782917155,33.38263021393012,14.449913494550755,2.4083189157584592
138,21.470910553583888,11.532562594670797,3.1622776601683795,3.255764119219941,13.45362404707371,22.995651762887697,19.904773296875298,8.94427190999916
139,27.949955277245078,2.0,1.0,3.924283374069717,27.110883423451916,29.785902705810344,28.8166618469246,4.8166378315169185
140,15.264337522473747,3.687817782917155,1.0,3.605551275463989,13.971399357258385,13.914021704740868,14.142135623730951,4.560701700396552
141,9.433981132056603,9.633275663033837,2.7202941017470885,2.0,8.579044235810887,49.01836390578535,6.44980619863884,3.492849839314596
142,15.264337522473747,16.198765385053267,1.3416407864998738,2.0,15.132745950421556,11.108555261599053,5.215361924162119,2.23606797749979
143,20.09975124224178,9.674709297958259,3.605551275463989,3.687817782917155,14.338758663147937,17.894133116750865,8.438009243891594,2.0
144,25.321927256826246,8.94427190999916,1.0,4.33589667773576,15.21840990379744,33.01817681217423,19.809088823063014,2.5298221281347035
145,11.0,9.0,4.0,9.0,18.0,12.0,6.0,6.0
146,19.864541273334254,9.979979959899719,5.019960159204453,2.449489742783178,13.542525613784159,22.49888886145269,29.46183972531247,2.9664793948382653
147,6.44980619863884,4.1952353926806065,4.732863826479693,3.1304951684997055,3.492849839314596,6.81175454637056,12.720062892926277,2.04939015319192
148,10.305338422390601,4.449719092257398,2.32379000772445,4.898979485566356,2.04939015319192,51.12142408032077,7.334848328356899,3.63318042491699
149,4.8373546489791295,10.816653826391969,2.23606797749979,1.7888543819998317,13.423859355639868,30.688760157425715,1.61245154965971,3.22490309931942
150,11.77285012220915,3.0983866769659336,1.0,2.449489742783178,23.920702330826327,51.29717341140738,9.848857801796104,1.6733200530681511
151,7.0,3.1622776601683795,2.6457513110645907,5.291502622129181,41.407728747179554,49.13043863024225,5.5677643628300215,2.0
152,12.609520212918492,8.366600265340756,2.32379000772445,7.334848328356899,18.61719635176038,23.5966099260042,11.738824472663351,4.494441010848846
153,22.521101216414795,6.0,4.560701700396552,7.1693793315739685,12.336936410632909,18.35211159512714,6.511528238439882,3.492849839314596
154,8.988882021697693,1.0,1.5491933384829668,5.019960159204453,2.04939015319192,11.77285012220915,14.219704638282751,9.818350166906862
155,8.988882021697693,2.7202941017470885,2.8284271247461903,7.64198926981712,7.1693793315739685,8.209750300709517,15.132745950421556,5.440588203494177
156,7.523297149521611,8.209750300709517,2.04939015319192,3.4351128074635335,9.979979959899719,10.411532067856296,14.219704638282751,3.3466401061363023
157,4.8373546489791295,7.443117626371358,1.8439088914585775,2.7202941017470885,13.535139452550904,38.47076812334269,17.961069010501575,4.560701700396552
158,37.50733261643648,7.113367697511496,0.7745966692414834,3.794733192202055,16.431676725154983,39.914909495074646,26.187783411354232,3.847076812334269
159,23.443549219348167,3.7416573867739413,0.8944271909999159,4.358898943540674,20.952326839756964,33.81124073440666,57.148928248918196,3.1304951684997055
160,29.886451780029024,6.618156843109719,3.1622776601683795,1.5491933384829668,10.844353369380768,25.099800796022265,27.40437921208944,2.04939015319192
161,4.47213595499958,2.23606797749979,0.4472135954999579,5.0,27.13300573102803,31.622776601683793,7.64198926981712,3.0
162,12.505998560690786,9.433981132056603,1.4832396974191326,3.872983346207417,14.771594362153328,28.982753492378876,8.17312669668102,3.4351128074635335
163,4.604345773288535,9.055385138137417,2.5298221281347035,4.049691346263317,13.152946437965905,24.971984302413777,13.76226725507102,2.0
164,21.18490028298458,6.016643582596529,3.1937438845342623,1.9493588689617927,6.7379522111692065,17.91089054179049,43.51091817004095,3.6606010435446255
165,17.395401691251628,7.280109889280518,3.22490309931942,5.385164807134504,24.560130292814,45.75587393985607,12.457929201917949,2.0
166,19.03155274800246,14.38054240979804,5.727128425310541,1.4832396974191326,5.5677643628300215,43.82465059758035,29.410882339705484,4.669047011971501
167,9.664367542679656,23.6981011897578,5.692099788303083,2.932575659723036,11.41052146047673,33.18734698646459,12.938315191708694,3.4351128074635335
168,9.06642156531451,2.8635642126552705,1.0,4.024922359499621,18.390214789392754,36.69059825077809,18.110770276274835,3.286335345030997
169,7.042726744663604,14.717336715588184,1.6733200530681511,2.6457513110645907,3.255764119219941,8.62554346113913,18.40652058374966,3.63318042491699
170,25.64371267971937,12.36931687685298,2.8284271247461903,3.82099463490856,8.23407554009556,74.19973045773145,21.279097725232617,3.63318042491699
171,18.24280680158621,5.0,3.0,1.7888543819998317,12.0,54.01666409544374,22.578751072634642,2.4083189157584592
172,11.269427669584644,7.3484692283495345,4.09878030638384,3.0,5.458937625582473,21.77154105707724,2.449489742783178,3.255764119219941
173,7.416198487095663,6.148170459575759,4.449719092257398,2.449489742783178,2.4083189157584592,14.839137441239636,6.48074069840786,3.521363372331802
174,27.382476148076893,10.686440005914037,4.219004621945797,3.3466401061363023,12.67280552995271,17.418381095842403,6.2289646009589745,2.0976176963403033
175,8.258329128825032,3.521363372331802,2.0,3.1622776601683795,7.26636084983398,8.921883209278185,13.183322798141598,5.744562646538029
176,17.933209417167916,9.633275663033837,4.024922359499621,4.898979485566356,6.340346993658944,26.122786987609114,48.799590162213455,5.830951894845301
177,13.65283853270081,9.38083151964686,1.9493588689617927,8.48528137423857,12.336936410632909,52.155536618848046,22.684796670898333,5.118593556827891
178,14.099645385611653,12.280065146407,2.04939015319192,3.0,13.023056476879765,52.333545647127714,14.892951352905172,5.215361924162119
179,22.5920339943087,11.8911731969558,2.6457513110645907,3.1622776601683795,19.44222209522358,5.621387729022079,28.722813232690143,5.019960159204453
180,12.853015210447703,5.176871642217914,3.1622776601683795,5.253570214625479,16.703293088490067,6.985699678629192,12.680693987317888,2.32379000772445
181,14.642404174178502,11.428035701729321,2.3664319132398464,5.347896782848375,7.797435475847171,30.662680900403995,14.52583904633395,3.0
182,12.529964086141668,10.63014581273465,1.0954451150103321,2.8284271247461903,10.0,24.89578277540194,20.243517480912253,2.6076809620810595
183,18.76166303929372,24.380319932273242,2.4083189157584592,0.8944271909999159,21.24617612654098,48.06037869180808,4.732863826479693,4.123105625617661
184,28.934408582170814,6.371812928829597,0.7745966692414834,2.6076809620810595,22.60088493842664,69.42766019390254,5.89915248150105,7.429670248402684
185,14.805404418657398,8.35463942968217,1.8439088914585775,2.6832815729997477,7.797435475847171,33.397604704529336,14.778362561528933,3.687817782917155
186,11.34019400186787,6.387487769068525,2.8635642126552705,2.4083189157584592,4.604345773288535,21.98635940759634,17.45279347267938,2.4083189157584592
187,13.682105101189656,5.9833101206606365,4.09878030638384,3.8987177379235853,11.61895003862225,22.79034883453959,10.009995004993758,3.1304951684997055
188,6.841052550594828,12.214745187681975,2.8635642126552705,3.3166247903554,22.94340863951998,40.10236900732923,11.823705003085962,1.9493588689617927
189,16.715262486721528,8.209750300709517,6.148170459575759,6.0332412515993425,11.0,14.946571513226704,19.677398201998148,2.7202941017470885
190,17.826945896591486,9.848857801796104,6.06630035524124,4.404543109109048,11.242775458044157,12.853015210447703,20.894975472586705,4.795831523312719
191,12.288205727444508,3.872983346207417,2.4083189157584592,2.449489742783178,6.618156843109719,73.03423854604085,17.538529014715003,4.69041575982343
192,13.236313686219438,1.7888543819998317,2.32379000772445,3.4351128074635335,4.560701700396552,40.06744314278115,27.78128866701471,3.605551275463989
193,7.745966692414834,5.118593556827891,2.449489742783178,3.1622776601683795,12.409673645990857,24.08318915758459,35.45419580247167,0.6324555320336759
194,9.969954864491614,5.5677643628300215,2.7202941017470885,6.418722614352485,16.923356641044943,18.80957203128237,24.277561656805652,0.7745966692414834
195,19.60612149304395,9.154233993076646,2.6457513110645907,1.4832396974191326,12.288205727444508,12.222929272478018,26.42347441196937,3.1622776601683795
196,14.872793954062566,7.848566748139434,2.756809750418044,6.371812928829597,6.663332499583072,8.706319543871567,29.082640870457414,1.61245154965971
197,27.71642112539063,6.572670690061994,4.626013402488151,8.07465169527454,20.923670806051216,28.474550040343043,25.80697580112788,1.8973665961010275
198,16.73320053068151,2.04939015319192,1.4832396974191326,1.6733200530681511,20.885401600160815,18.35755975068582,24.273442277518036,2.32379000772445
199,3.3466401061363023,7.733045971672482,4.0743097574926725,7.429670248402684,12.561846997953765,12.735776379946374,19.452506265260524,1.8439088914585775
200,11.135528725660043,4.494441010848846,3.4351128074635335,4.449719092257398,15.0,13.349157276772193,27.018512172212592,5.5677643628300215
201,23.74447304111001,7.334848328356899,1.61245154965971,1.5491933384829668,8.209750300709517,15.42076522096099,16.217274740226856,3.1622776601683795
202,6.511528238439882,12.239281024635394,0.6324555320336759,3.0983866769659336,4.0743097574926725,20.5621010599598,11.41052146047673,4.69041575982343
203,6.418722614352485,6.244997998398398,1.2649110640673518,3.3466401061363023,8.306623862918075,46.138920663578595,6.148170459575759,5.727128425310541
204,10.411532067856296,3.1937438845342623,2.932575659723036,8.426149773176359,27.313000567495326,20.644611887851028,25.721586265236443,8.221921916437786
205,8.449852069711044,6.196773353931867,1.3416407864998738,8.209750300709517,22.66715685744465,32.86639621254512,22.49888886145269,2.756809750418044
206,10.770329614269007,1.7888543819998317,0.8944271909999159,5.531726674375733,19.209372712298546,2.0,22.25758297749331,10.207840124139876
207,16.822603841260722,6.180614856144977,4.147288270665544,3.0,8.602325267042627,12.12435565298214,19.042058712229622,8.694826047713663
208,19.98499437077729,6.371812928829597,2.9664793948382653,4.6475800154489,8.366600265340756,7.937253933193772,15.7797338380595,8.54400374531753
209,10.825894882179487,7.874007874011811,2.8635642126552705,4.1952353926806065,5.89915248150105,23.220680437919988,23.31523107327054,7.496665925596525
210,7.211102550927978,5.531726674375733,2.5298221281347035,3.22490309931942,16.321764610482532,54.868934744534634,49.20365840057018,6.81175454637056
211,10.158740079360236,7.3484692283495345,3.4351128074635335,4.898979485566356,20.356817039999154,27.469983618488016,31.17049887313323,4.560701700396552
212,9.219544457292887,6.276941930590086,2.7202941017470885,2.23606797749979,10.469001862641921,20.024984394500787,31.723808094237363,4.8166378315169185
213,29.7018517941222,6.48074069840786,3.3763886032268267,2.1908902300206643,13.978555004005242,30.864218765424795,33.72239611889997,7.05691150575094
214,16.76305461424021,4.47213595499958,3.492849839314596,7.113367697511496,31.15124395590006,35.67632268045573,11.135528725660043,3.924283374069717
215,13.718600511714014,5.019960159204453,2.449489742783178,3.924283374069717,30.315012782448235,6.971370023173351,17.776388834631177,6.418722614352485
216,16.25423021862309,7.280109889280518,5.310367218940701,6.7379522111692065,23.954122818421048,22.882307575941724,16.143109985377663,4.123105625617661
217,32.37282811247729,3.521363372331802,1.8973665961010275,3.3466401061363023,4.494441010848846,29.593918294136042,10.564090116995406,5.403702434442518
218,6.06630035524124,7.0285133563222315,3.6606010435446255,4.857983120596447,11.242775458044157,29.919893047937187,13.243866504914644,5.272570530585627
219,16.46207763315433,8.330666239863412,2.6457513110645907,0.7745966692414834,14.25482374496437,17.708754896942924,27.49181696432595,4.494441010848846
220,14.099645385611653,8.683317338436964,2.8635642126552705,2.3664319132398464,6.841052550594828,16.45600194457937,20.134547424762246,3.714835124201342
221,28.74021572639983,7.416198487095663,1.4832396974191326,1.8973665961010275,6.324555320336759,11.242775458044157,9.444575162494075,4.494441010848846
222,22.995651762887697,8.23407554009556,4.266145801540309,4.8166378315169185,10.315037566582102,19.76866206904251,14.184498581197715,4.266145801540309
223,13.769531582446804,4.8166378315169185,1.6733200530681511,6.371812928829597,25.592967784139454,14.696938456699069,18.750999973334757,10.75174404457249
224,11.50651989091402,8.270429251254134,1.2649110640673518,2.569046515733026,22.284523777725205,17.297398648351724,16.480291259562133,5.692099788303083
225,17.86057109949175,4.427188724235731,2.6457513110645907,2.5298221281347035,16.504544828622205,17.146428199482248,19.44222209522358,6.511528238439882
226,11.480418110852932,0.8944271909999159,2.32379000772445,1.2649110640673518,9.16515138991168,14.791889669680478,34.0,1.6733200530681511
227,8.78635305459552,5.0,4.69041575982343,3.63318042491699,18.85735930611707,27.93564031841762,5.89915248150105,5.059644256269407
228,8.366600265340756,3.521363372331802,2.4083189157584592,5.019960159204453,23.45207879911715,52.178539649936546,22.423202269078338,7.416198487095663
229,4.795831523312719,5.796550698475776,1.6733200530681511,5.761944116355173,17.871765441612084,32.90592651787821,30.278705388440898,3.492849839314596
230,16.73320053068151,6.2289646009589745,4.8166378315169185,4.69041575982343,13.0,39.242833740697165,58.218553743630565,4.69041575982343
231,37.344343614528825,15.20526224699857,4.1952353926806065,13.557285864065861,22.856071403458643,27.66586344215557,37.73592452822641,6.767569726275452
232,33.14513538967672,25.87663038341739,1.4832396974191326,4.0,11.480418110852932,10.917875251164945,15.231546211727817,1.6733200530681511
233,30.026654825338102,14.791889669680478,3.7682887362833544,4.560701700396552,6.618156843109719,22.445489524623873,12.680693987317888,2.7202941017470885
234,7.334848328356899,13.542525613784159,5.059644256269407,2.5298221281347035,11.489125293076057,19.44222209522358,10.295630140987,6.196773353931867
235,7.155417527999327,14.099645385611653,0.8944271909999159,0.0,6.826419266350405,28.316073174082593,31.480152477394387,4.0743097574926725
236,3.872983346207417,10.295630140987,1.2649110640673518,4.494441010848846,5.0,43.520110293977886,28.142494558940577,1.2649110640673518
237,15.086417732516887,8.648699324175862,4.604345773288535,4.8166378315169185,11.054410884348384,38.843274836192684,7.429670248402684,1.4142135623730951
238,5.621387729022079,6.0,2.6457513110645907,5.932958789676531,18.09419796509367,34.08812109811862,15.830350596243912,0.7745966692414834
239,5.458937625582473,5.385164807134504,4.147288270665544,6.115553940568262,27.810070118573954,36.85647839932622,22.785960589801782,3.3763886032268267
240,14.064138793399332,2.0,2.932575659723036,2.04939015319192,16.35236985883086,14.0,30.239047604049965,6.276941930590086
241,24.4989795705862,3.7416573867739413,3.605551275463989,4.898979485566356,10.807404868885037,20.591260281974,10.198039027185569,2.0
242,22.79034883453959,10.079682534683322,3.40587727318528,2.8284271247461903,9.6850400102426,18.110770276274835,17.481418706729727,6.81175454637056
243,37.40588189041932,9.316651759081692,2.32379000772445,5.744562646538029,18.83082579177026,45.21061822182926,24.576411454889016,4.8166378315169185
244,19.697715603592208,11.260550608207398,4.123105625617661,4.1952353926806065,1.2649110640673518,47.01489125798336,24.153674668671016,3.924283374069717
245,24.033310217279684,4.494441010848846,3.1622776601683795,9.327379053088816,8.1117199162693,28.209927330640184,22.543291685111114,4.266145801540309
246,26.806715576511795,11.419281938896159,1.6733200530681511,2.1447610589527217,11.0,49.14671911735309,7.64198926981712,3.605551275463989
247,29.816103031751148,19.157244060668017,3.255764119219941,3.63318042491699,18.35755975068582,9.909591313469996,26.04611295375953,4.0
248,7.848566748139434,9.664367542679656,3.0,5.5677643628300215,2.6457513110645907,20.952326839756964,29.410882339705484,5.692099788303083
249,11.933147112141038,7.280109889280518,1.0,1.8439088914585775,0.0,4.47213595499958,40.60541835765272,0.4472135954999579
250,18.313929125122222,6.276941930590086,1.2649110640673518,2.0976176963403033,5.848076606885378,29.651306885194792,21.61018278497431,3.255764119219941
251,9.486832980505138,7.224956747275377,2.6457513110645907,3.521363372331802,10.554619841567009,16.858232410309213,26.962937525425527,4.0743097574926725
252,16.174053295324583,8.136338242723197,1.3416407864998738,3.924283374069717,21.470910553583888,13.76226725507102,23.242202993692317,4.123105625617661
253,15.905973720586866,6.752777206453653,2.1908902300206643,1.4142135623730951,6.6932802122726045,12.457929201917949,22.135943621178654,5.272570530585627
254,13.935566009315876,12.497999839974394,1.0954451150103321,7.64198926981712,21.517434791350013,15.811388300841896,16.211107303327555,2.6457513110645907
255,18.504053609952603,3.63318042491699,3.3763886032268267,3.4351128074635335,16.024980499208105,21.789905919943756,21.67487024182613,3.03315017762062
256,27.730849247724095,3.0659419433511785,3.924283374069717,3.63318042491699,4.358898943540674,14.163332941084171,28.31254139069822,5.157518783291051
257,20.174241001832016,6.260990336999411,3.8987177379235853,3.255764119219941,6.131883886702357,37.754469934035626,12.891857895586655,2.756809750418044
258,9.848857801796104,5.059644256269407,3.82099463490856,3.687817782917155,10.478549517943788,28.778464170278443,12.625371281669304,5.440588203494177
259,35.874782229304195,10.89954127475097,3.82099463490856,5.403702434442518,22.60530911091463,32.239727045990946,29.485589700733474,3.687817782917155
260,20.381364036786152,6.434283176858165,2.0,5.621387729022079,18.504053609952603,21.13764414498456,20.961870145576228,2.9664793948382653
261,18.04993074778959,8.520563361656317,1.6733200530681511,3.63318042491699,5.656854249492381,25.80697580112788,19.974984355438178,2.1908902300206643
262,8.820430828479978,7.64198926981712,3.687817782917155,0.8944271909999159,4.47213595499958,4.404543109109048,8.48528137423857,1.61245154965971
263,24.331050121192877,1.8973665961010275,2.3664319132398464,4.732863826479693,8.579044235810887,16.715262486721528,35.9972221150466,3.3466401061363023
264,14.710540438746634,9.929753269845127,3.63318042491699,3.5777087639996634,17.395401691251628,6.826419266350405,7.211102550927978,2.4083189157584592
265,24.331050121192877,7.211102550927978,1.5491933384829668,3.687817782917155,21.461593603458248,22.72443618662518,8.899438184514796,6.324555320336759
266,6.663332499583072,11.489125293076057,2.932575659723036,4.242640687119285,26.581948762270986,4.9396356140913875,25.768197453450252,3.6606010435446255
267,5.813776741499453,4.404543109109048,2.7202941017470885,3.82099463490856,20.044949488586894,23.27230113246217,22.631835983852483,5.440588203494177
268,21.0,13.236313686219438,6.0,2.6457513110645907,23.469128658729534,11.50651989091402,13.682105101189656,4.0743097574926725
269,8.049844718999243,9.643650760992955,4.0743097574926725,2.04939015319192,4.898979485566356,51.39649793517064,11.738824472663351,3.714835124201342
270,14.338758663147937,9.011104260855047,3.286335345030997,4.024922359499621,17.75387281693772,43.7926934545022,29.24038303442689,7.014271166700073
271,19.354586019855862,10.12916580968048,5.656854249492381,8.54400374531753,19.349418595916518,18.5310550158376,13.718600511714014,7.334848328356899
272,24.72245942457991,5.813776741499453,3.03315017762062,7.758865896508329,35.79385422108103,24.244587024736056,25.219040425836983,3.63318042491699
273,10.488088481701515,1.6733200530681511,2.280350850198276,8.07465169527454,48.31148931672465,35.656696425776744,31.295367069264422,4.266145801540309
274,25.444056280396804,13.527749258468683,1.4832396974191326,7.655063683601855,5.176871642217914,28.77498913987632,17.337819932159867,6.418722614352485
275,33.523126345852646,12.537942414925983,2.4083189157584592,1.8973665961010275,5.458937625582473,64.0671522700986,24.020824298928627,4.312771730569565
276,15.678010077812809,6.496152707564686,1.6733200530681511,2.7202941017470885,28.81319142337412,23.29806858947754,19.651971911235776,4.494441010848846
277,12.206555615733702,0.8944271909999159,2.7202941017470885,2.8635642126552705,14.812157169028419,10.770329614269007,19.859506539690255,1.61245154965971
278,10.917875251164945,4.6475800154489,3.3466401061363023,3.924283374069717,18.660117898877274,18.4499322491981,23.769728648009426,5.272570530585627
279,17.158088471621774,8.921883209278185,2.7202941017470885,3.40587727318528,18.579558659989747,19.157244060668017,17.567014544310027,4.404543109109048
280,21.18962010041709,11.584472366059664,2.23606797749979,5.531726674375733,25.385034961567417,18.772320048411704,17.070442290696512,3.5777087639996634
281,5.118593556827891,4.09878030638384,2.449489742783178,2.6457513110645907,8.921883209278185,8.613942186943213,9.664367542679656,5.019960159204453
282,21.78072542409917,15.244671200127604,3.4641016151377544,7.252585745787498,11.0,26.237377917772193,14.553350129781116,3.714835124201342
283,12.457929201917949,5.89915248150105,1.6733200530681511,1.4832396974191326,20.799038439312525,15.231546211727817,6.511528238439882,4.69041575982343
284,19.256167843057455,25.238858928247925,6.826419266350405,1.0954451150103321,22.67156809750927,8.899438184514796,15.684387141358123,5.2345009313209605
285,10.382677881933928,13.83473888441701,4.427188724235731,13.70401401050072,40.87542048713383,9.518403227432634,42.96044692504956,5.0
286,4.449719092257398,9.262828941527529,2.6832815729997477,7.733045971672482,23.400854685246006,26.68707552355634,13.475904422338413,3.924283374069717
287,17.57270610919104,10.246950765959598,2.6457513110645907,2.449489742783178,6.6932802122726045,14.4083309234623,9.154233993076646,4.494441010848846
288,35.76310948449533,11.77285012220915,1.4832396974191326,4.312771730569565,3.4351128074635335,11.331372379372237,10.807404868885037,5.882176467941097
289,21.090282122342508,11.15347479487895,6.06630035524124,2.8635642126552705,3.3763886032268267,3.687817782917155,18.498648599289623,5.882176467941097
290,5.422176684690384,11.189280584559492,4.898979485566356,1.2649110640673518,3.872983346207417,16.278820596099706,19.224983745116667,2.4083189157584592
291,21.151832071950647,15.697133496278868,4.2895221179054435,2.23606797749979,1.4142135623730951,11.907980517283358,24.511221919765646,2.04939015319192
292,24.63736998950984,4.0,0.6324555320336759,3.521363372331802,21.0,3.924283374069717,13.638181696985855,3.63318042491699
293,19.02104098097683,14.212670403551895,2.6457513110645907,9.726253132630262,6.841052550594828,8.763560920082657,16.92926460304759,3.687817782917155
294,33.331666624997915,13.183322798141598,3.0,5.9833101206606365,28.722813232690143,29.103264421710495,15.407790237409127,2.9664793948382653
295,19.75854245636555,8.160882305241266,2.4083189157584592,3.492849839314596,19.859506539690255,28.705400188814647,12.10784869413225,3.3763886032268267
296,24.89578277540194,3.63318042491699,2.32379000772445,3.924283374069717,16.73320053068151,27.87113201863175,8.330666239863412,5.019960159204453
297,23.40512764331782,20.228692493584454,4.6475800154489,5.0,15.924823389915506,31.849646779831012,10.611314715905847,2.449489742783178
298,9.20869154657707,2.7202941017470885,1.0,5.215361924162119,7.1693793315739685,75.1970744111764,8.099382692526634,1.2649110640673518
299,25.25074256333861,25.942243542145693,6.371812928829597,4.8166378315169185,1.0,8.820430828479978,15.874507866387544,2.0
300,34.836762191684805,18.681541692269406,4.560701700396552,5.440588203494177,22.36515146382872,31.68911485037094,7.58946638440411,0.8944271909999159
301,14.449913494550755,7.64198926981712,2.8284271247461903,6.767569726275452,11.627553482998906,16.198765385053267,18.487833837418595,6.082762530298219
302,8.94427190999916,11.454256850621082,3.22490309931942,8.590692637965812,16.492422502470642,16.70927885936434,18.027756377319946,6.082762530298219
303,8.637129152675673,5.656854249492381,2.23606797749979,1.61245154965971,8.06225774829855,34.539832078341085,5.60357029044876,5.656854249492381
304,15.931101656822104,15.620499351813308,2.932575659723036,1.7888543819998317,12.48198702130394,48.579831205964474,25.282404948896772,2.9664793948382653
305,13.65283853270081,13.416407864998739,3.521363372331802,6.7379522111692065,5.744562646538029,50.85469496516521,29.889797590482274,1.3416407864998738
306,2.449489742783178,9.612491872558333,3.1622776601683795,6.418722614352485,9.316651759081692,47.40253157796533,26.698314553544385,2.32379000772445
307,8.099382692526634,22.80350850198276,2.6832815729997477,6.81175454637056,5.656854249492381,19.43707796969493,16.419500601419035,2.23606797749979
308,9.612491872558333,7.745966692414834,2.4083189157584592,4.6475800154489,17.86057109949175,30.610455730027933,31.60379724020517,3.1622776601683795
309,17.759504497592268,8.774964387392123,2.449489742783178,3.22490309931942,10.75174404457249,27.029613389761977,12.361229712289955,5.727128425310541
310,14.628738838327793,6.870225614927067,3.872983346207417,3.0983866769659336,10.382677881933928,25.756552564347583,19.621416870348583,4.69041575982343
311,24.673872821265817,8.648699324175862,4.024922359499621,4.0743097574926725,11.899579824514813,32.990907838372685,35.519008995184535,5.0
312,20.726794252850585,6.572670690061994,1.4832396974191326,7.912016177940993,18.525657883055057,11.063453348751466,33.544000953970894,8.037412518964047
313,4.494441010848846,13.416407864998739,2.9664793948382653,7.416198487095663,9.674709297958259,28.827070610799147,22.289010745208053,3.9496835316262997
314,17.02351315093333,3.22490309931942,2.756809750418044,5.422176684690384,19.555050498528505,32.67108813614876,14.296852800529214,2.1908902300206643
315,16.492422502470642,2.8284271247461903,3.687817782917155,8.0,13.48332303254654,25.14358765172544,9.044335243676011,4.123105625617661
316,9.402127418834526,11.730302638892145,5.291502622129181,10.927030703718188,17.686152775547317,50.12983143797713,35.60056179332006,3.3763886032268267
317,17.175564037317667,10.0,3.3466401061363023,7.416198487095663,15.504837954651444,33.406586176980134,15.582040944625964,7.334848328356899
318,15.388307249337076,8.099382692526634,2.5298221281347035,3.0659419433511785,15.811388300841896,39.2632143360678,13.45362404707371,11.636150566231086
