time,emg1,emg2,emg3,emg4,emg5,emg6,emg7,emg8
0,7,3,-4,23,28,-3,2,-2
1,-17,-21,-3,7,-17,-25,49,-12
2,-30,-11,0,-22,-15,39,-9,-35
3,-30,-11,0,-22,-15,39,-9,-35
4,-30,-11,0,-22,-15,39,-9,-35
5,19,-1,2,9,65,24,-44,-4
6,19,-1,2,9,65,24,-44,-4
7,19,-1,2,9,65,24,-44,-4
8,19,-1,2,9,65,24,-44,-4
9,19,-1,2,9,65,24,-44,-4
10,-27,-4,-3,0,25,27,-6,-3
11,-27,-4,-3,0,25,27,-6,-3
12,-21,7,2,-1,-5,-58,-8,7
13,24,-15,-3,-6,-20,-3,-15,13
14,24,-15,-3,-6,-20,-3,-15,13
15,24,-15,-3,-6,-20,-3,-15,13
16,4,-10,-2,1,-10,7,9,4
17,4,-10,-2,1,-10,7,9,4
18,4,-10,-2,1,-10,7,9,4
19,4,-10,-2,1,-10,7,9,4
20,4,-10,-2,1,-10,7,9,4
21,16,2,1,-2,-13,32,2,2
22,16,2,1,-2,-13,32,2,2
23,6,13,0,-4,-2,-64,-31,18
24,6,13,0,-4,-2,-64,-31,18
25,16,-8,2,2,17,-6,-11,8
26,16,-8,2,2,17,-6,-11,8
27,16,-8,2,2,17,-6,-11,8
28,16,-8,2,2,17,-6,-11,8
29,-26,4,1,10,15,-8,-21,8
30,-26,4,1,10,15,-8,-21,8
31,-26,4,1,10,15,-8,-21,8
32,-33,-22,-10,-17,-6,-10,3,-11
33,-77,8,5,-10,13,40,-10,0
34,-77,8,5,-10,13,40,-10,0
35,-1,5,-2,-8,-40,-67,-35,6
36,-1,5,-2,-8,-40,-67,-35,6
37,-1,5,-2,-8,-40,-67,-35,6
38,-4,-9,-5,-6,-15,24,2,-6
39,-4,-9,-5,-6,-15,24,2,-6
40,-4,-9,-5,-6,-15,24,2,-6
41,34,-24,-6,20,16,-11,19,-4
42,34,-24,-6,20,16,-11,19,-4
43,34,-24,-6,20,16,-11,19,-4
44,34,-24,-6,20,16,-11,19,-4
45,4,1,-3,-29,4,1,2,-7
46,4,1,-3,-29,4,1,2,-7
47,4,1,-3,-29,4,1,2,-7
48,-42,7,-3,-8,16,-40,-27,-16
49,-42,7,-3,-8,16,-40,-27,-16
50,-42,7,-3,-8,16,-40,-27,-16
51,-42,7,-3,-8,16,-40,-27,-16
52,5,1,0,-5,-6,53,-8,4
53,5,1,0,-5,-6,53,-8,4
54,5,1,0,-5,-6,53,-8,4
55,5,1,0,-5,-6,53,-8,4
56,13,-21,-2,5,9,11,15,-6
57,-17,-2,-4,0,-44,13,5,5
58,-17,-2,-4,0,-44,13,5,5
59,-17,-2,-4,0,-44,13,5,5
60,-17,-2,-4,0,-44,13,5,5
61,5,-3,0,3,5,-6,38,-1
62,5,-3,0,3,5,-6,38,-1
63,5,-3,0,3,5,-6,38,-1
64,0,3,3,-2,-31,-50,8,9
65,0,3,3,-2,-31,-50,8,9
66,0,3,3,-2,-31,-50,8,9
67,0,3,3,-2,-31,-50,8,9
68,0,3,3,-2,-31,-50,8,9
69,53,12,2,46,32,-59,-48,5
70,0,46,6,-7,26,59,-64,-17
71,1,5,-1,0,5,41,3,-14
72,-7,-3,-4,8,15,39,-32,-8
73,-7,-3,-4,8,15,39,-32,-8
74,-7,-3,-4,8,15,39,-32,-8
75,-36,-7,3,3,21,14,-17,-11
76,-36,-7,3,3,21,14,-17,-11
77,-36,-7,3,3,21,14,-17,-11
78,-36,-7,3,3,21,14,-17,-11
79,-36,-7,3,3,21,14,-17,-11
80,15,-10,3,13,26,45,-16,9
81,15,-10,3,13,26,45,-16,9
82,-37,19,2,-13,-19,-85,-7,4
83,-12,-12,-4,2,-8,-22,-50,6
84,-12,-12,-4,2,-8,-22,-50,6
85,-12,-12,-4,2,-8,-22,-50,6
86,-13,15,0,32,7,-23,16,7
87,-13,15,0,32,7,-23,16,7
88,-13,15,0,32,7,-23,16,7
89,-13,15,0,32,7,-23,16,7
90,8,-8,-6,1,-9,24,84,-5
91,8,-8,-6,1,-9,24,84,-5
92,8,-8,-6,1,-9,24,84,-5
93,-32,-18,-2,-7,48,-29,-20,-3
94,-14,5,4,-16,-8,-13,28,-2
95,-14,5,4,-16,-8,-13,28,-2
96,-14,5,4,-16,-8,-13,28,-2
97,-14,5,4,-16,-8,-13,28,-2
98,19,-3,-6,-9,-12,-24,113,6
99,-4,3,4,-12,-20,10,-5,3
100,-4,3,4,-12,-20,10,-5,3
101,-4,3,4,-12,-20,10,-5,3
102,-4,3,4,-12,-20,10,-5,3
103,37,1,-4,-30,-13,-23,-74,-1
104,11,12,7,9,3,11,-33,-2
105,11,12,7,9,3,11,-33,-2
106,11,12,7,9,3,11,-33,-2
107,-4,9,1,18,10,7,-16,-7
108,-20,-4,0,36,17,-20,-12,-5
109,13,-3,0,-1,20,26,0,0
110,13,-3,0,-1,20,26,0,0
111,13,-3,0,-1,20,26,0,0
112,-41,25,7,-3,6,-5,-61,-13
113,-10,-10,-3,2,-1,55,66,8
114,-10,-10,-3,2,-1,55,66,8
115,45,-4,-6,-62,-14,16,-23,0
116,45,-4,-6,-62,-14,16,-23,0
117,9,-20,-6,24,16,-73,45,4
118,9,-20,-6,24,16,-73,45,4
119,101,-15,0,17,-5,-19,-21,5
120,101,-15,0,17,-5,-19,-21,5
121,-13,0,-3,13,11,-25,-24,-2
122,-13,0,-3,13,11,-25,-24,-2
123,-36,26,10,-8,-8,-27,9,-8
124,-36,26,10,-8,-8,-27,9,-8
125,-36,26,10,-8,-8,-27,9,-8
126,-28,-3,1,-13,-42,11,-12,2
127,-20,-12,-3,-13,-45,-26,15,-8
128,-20,-12,-3,-13,-45,-26,15,-8
129,-37,5,1,2,0,16,-19,-1
130,11,-9,-8,-58,-74,-9,31,2
131,11,-9,-8,-58,-74,-9,31,2
132,11,-9,-8,-58,-74,-9,31,2
133,11,-9,-8,-58,-74,-9,31,2
134,3,-11,2,8,-11,-29,55,5
135,3,-11,2,8,-11,-29,55,5
136,9,6,-1,3,25,9,55,3
137,9,6,-1,3,25,9,55,3
138,-20,1,2,5,2,6,26,-2
139,-20,1,2,5,2,6,26,-2
140,24,-23,-6,26,10,-61,-81,-5
141,24,-23,-6,26,10,-61,-81,-5
142,24,-23,-6,26,10,-61,-81,-5
143,24,-23,-6,26,10,-61,-81,-5
144,9,-4,-5,-47,-43,-3,69,5
145,9,-4,-5,-47,-43,-3,69,5
146,9,-4,-5,-47,-43,-3,69,5
147,7,-9,-4,-9,-47,-14,-6,7
148,17,-11,-3,13,38,40,-37,1
149,17,-11,-3,13,38,40,-37,1
150,17,-11,-3,13,38,40,-37,1
151,43,1,2,0,13,55,69,12
152,15,8,1,4,16,-14,-42,2
153,15,8,1,4,16,-14,-42,2
154,15,8,1,4,16,-14,-42,2
155,15,8,1,4,16,-14,-42,2
156,-28,7,1,-12,14,56,26,0
157,-14,-15,1,6,-20,-32,-32,9
158,-14,-15,1,6,-20,-32,-32,9
159,-16,-18,-4,7,-6,2,-58,-3
160,-16,-18,-4,7,-6,2,-58,-3
161,-16,-18,-4,7,-6,2,-58,-3
162,-20,-3,-4,3,-3,26,-84,-18
163,-20,-3,-4,3,-3,26,-84,-18
164,-20,-3,-4,3,-3,26,-84,-18
165,5,-1,-3,-11,6,-52,-43,1
166,-22,8,0,6,23,61,48,0
167,-22,8,0,6,23,61,48,0
168,-22,8,0,6,23,61,48,0
169,17,-2,-1,19,36,7,0,2
170,17,-2,-1,19,36,7,0,2
171,17,-2,-1,19,36,7,0,2
172,17,-2,-1,19,36,7,0,2
173,33,-15,-4,12,14,17,3,2
174,-2,7,-1,-7,-17,22,16,-4
175,-2,7,-1,-7,-17,22,16,-4
176,-23,-20,-5,15,-18,27,-14,2
177,-23,-20,-5,15,-18,27,-14,2
178,24,8,3,-7,-22,-33,9,3
179,24,8,3,-7,-22,-33,9,3
180,24,8,3,-7,-22,-33,9,3
181,22,-13,-3,-2,-11,-6,56,1
182,22,-13,-3,-2,-11,-6,56,1
183,22,-13,-3,-2,-11,-6,56,1
184,5,-4,-3,-2,40,61,-105,1
185,-38,-2,-4,-24,-16,-16,-17,-6
186,-38,-2,-4,-24,-16,-16,-17,-6
187,-18,-4,0,-1,-22,-34,42,5
188,-16,-12,-3,6,7,-28,-93,5
189,-16,-12,-3,6,7,-28,-93,5
190,-16,-12,-3,6,7,-28,-93,5
191,3,0,1,0,-38,1,51,5
192,3,0,1,0,-38,1,51,5
193,3,0,1,0,-38,1,51,5
194,3,0,1,0,-38,1,51,5
195,42,22,-1,5,22,12,24,-11
196,42,22,-1,5,22,12,24,-11
197,42,22,-1,5,22,12,24,-11
198,34,20,5,-13,-6,36,2,9
199,-29,-6,1,41,29,29,4,-3
200,-29,-6,1,41,29,29,4,-3
201,-29,-6,1,41,29,29,4,-3
202,-29,-6,1,41,29,29,4,-3
203,1,9,1,-3,10,-33,17,-3
204,-60,8,6,6,-6,-16,4,-2
205,-60,8,6,6,-6,-16,4,-2
206,35,-17,-4,-6,-23,11,12,3
207,35,-17,-4,-6,-23,11,12,3
208,35,-17,-4,-6,-23,11,12,3
209,10,-9,2,-7,32,-2,-74,-1
210,10,-9,2,-7,32,-2,-74,-1
211,15,-11,-5,-18,2,0,-8,-1
212,15,-11,-5,-18,2,0,-8,-1
213,15,-11,-5,-18,2,0,-8,-1
214,15,-11,-5,-18,2,0,-8,-1
215,8,-16,-5,-17,17,-4,-58,1
216,8,-16,-5,-17,17,-4,-58,1
217,8,-16,-5,-17,17,-4,-58,1
218,8,-16,-5,-17,17,-4,-58,1
219,29,4,1,-3,-15,-30,34,6
220,29,4,1,-3,-15,-30,34,6
221,-20,0,1,2,-1,9,-21,-8
222,-20,0,1,2,-1,9,-21,-8
223,-20,0,1,2,-1,9,-21,-8
224,-20,0,1,2,-1,9,-21,-8
225,7,-3,4,-8,-3,30,-41,-1
226,7,-3,4,-8,-3,30,-41,-1
227,7,-3,4,-8,-3,30,-41,-1
228,7,-3,4,-8,-3,30,-41,-1
229,-13,10,0,5,12,38,16,-5
230,-13,10,0,5,12,38,16,-5
231,-12,5,-3,-10,2,28,-2,-14
232,0,10,-2,4,-9,-34,5,-1
233,0,10,-2,4,-9,-34,5,-1
234,0,10,-2,4,-9,-34,5,-1
235,67,0,-2,22,15,-15,-26,10
236,67,0,-2,22,15,-15,-26,10
237,67,0,-2,22,15,-15,-26,10
238,67,0,-2,22,15,-15,-26,10
239,-9,10,-3,-4,3,9,30,-3
240,-9,10,-3,-4,3,9,30,-3
241,-24,-1,2,2,28,45,-48,-9
242,17,-6,-2,-2,-1,-35,18,6
243,17,-6,-2,-2,-1,-35,18,6
244,17,-6,-2,-2,-1,-35,18,6
245,-29,0,-1,1,-29,-38,-4,-4
246,-29,0,-1,1,-29,-38,-4,-4
247,-29,0,-1,1,-29,-38,-4,-4
248,-29,0,-1,1,-29,-38,-4,-4
249,-14,-13,-5,-9,-14,-13,-7,-7
250,-14,-13,-5,-9,-14,-13,-7,-7
251,6,-11,-4,-4,-8,2,-4,2
252,6,-11,-4,-4,-8,2,-4,2
253,-10,2,0,0,10,58,20,-1
254,-10,2,0,0,10,58,20,-1
255,-10,2,0,0,10,58,20,-1
256,28,6,-1,-3,-21,-52,37,4
257,28,6,-1,-3,-21,-52,37,4
258,28,6,-1,-3,-21,-52,37,4
259,2,2,0,-2,2,10,-43,2
260,2,2,0,-2,2,10,-43,2
261,2,2,0,-2,2,10,-43,2
262,16,19,1,-3,9,-13,35,5
263,-49,-4,0,-7,-8,73,23,-3
264,-49,-4,0,-7,-8,73,23,-3
265,-49,-4,0,-7,-8,73,23,-3
266,-38,9,2,0,12,-38,-49,-5
267,-38,9,2,0,12,-38,-49,-5
268,-38,9,2,0,12,-38,-49,-5
269,-4,-7,-4,-24,-10,4,29,4
270,29,4,-2,-8,-32,10,30,-4
271,29,4,-2,-8,-32,10,30,-4
272,8,-39,-1,5,22,-1,40,1
273,-22,-10,-1,2,18,56,-13,0
274,-22,-10,-1,2,18,56,-13,0
275,-28,-8,-2,5,14,5,-23,0
276,-28,-8,-2,5,14,5,-23,0
277,-28,-8,-2,5,14,5,-23,0
278,-28,-8,-2,5,14,5,-23,0
279,28,-6,-2,2,41,19,15,8
280,13,2,-2,-2,-11,5,-12,1
281,13,2,-2,-2,-11,5,-12,1
282,13,2,-2,-2,-11,5,-12,1
283,37,-33,-8,10,17,32,-35,0
284,23,23,3,-7,-7,-5,36,-3
285,23,23,3,-7,-7,-5,36,-3
286,-10,-25,-6,6,40,10,6,1
287,-10,-25,-6,6,40,10,6,1
288,-10,-25,-6,6,40,10,6,1
289,-10,-25,-6,6,40,10,6,1
290,2,-17,-2,-6,-1,4,21,0
291,2,-17,-2,-6,-1,4,21,0
292,-4,-20,-3,-6,8,-10,26,-1
293,-4,-20,-3,-6,8,-10,26,-1
294,11,-1,-3,6,-4,-18,14,1
295,11,-1,-3,6,-4,-18,14,1
296,-66,21,5,-6,-15,-10,-13,-9
297,-12,-10,-1,-8,-26,-15,-1,-5
298,-12,-10,-1,-8,-26,-15,-1,-5
299,-12,-10,-1,-8,-26,-15,-1,-5
300,11,-9,1,0,-11,-11,-7,2
301,11,-9,1,0,-11,-11,-7,2
302,39,12,-2,4,2,-38,36,6
303,39,12,-2,4,2,-38,36,6
304,50,-20,-3,9,-20,-4,41,0
305,50,-20,-3,9,-20,-4,41,0
306,41,0,0,11,6,68,35,8
307,-28,-1,3,-2,21,-2,4,1
308,-28,-1,3,-2,21,-2,4,1
309,-28,-1,3,-2,21,-2,4,1
310,1,-1,-6,-3,-5,-21,-62,-6
311,-58,27,3,-3,-2,-56,-12,-10
312,-58,27,3,-3,-2,-56,-12,-10
313,-18,-8,0,-1,6,12,14,-9
314,14,1,0,6,10,-38,-39,5
315,14,1,0,6,10,-38,-39,5
316,14,1,0,6,10,-38,-39,5
317,28,20,0,-10,-40,41,40,3
318,28,20,0,-10,-40,41,40,3
319,28,20,0,-10,-40,41,40,3
320,28,20,0,-10,-40,41,40,3
321,19,2,-1,5,10,19,-13,-1
322,19,2,-1,5,10,19,-13,-1
323,-54,17,-1,-5,5,-44,-38,-11
324,-54,17,-1,-5,5,-44,-38,-11
325,-5,-8,-7,1,-2,-47,-18,2
326,-5,-8,-7,1,-2,-47,-18,2
327,12,-1,-3,-5,2,41,9,-2
328,12,-1,-3,-5,2,41,9,-2
329,12,-1,-3,-5,2,41,9,-2
330,12,-1,-3,-5,2,41,9,-2
331,-7,7,3,-3,-9,-39,-42,-6
332,-7,7,3,-3,-9,-39,-42,-6
333,-10,-7,0,0,-1,4,36,-1
334,-10,-7,0,0,-1,4,36,-1
335,2,7,4,2,32,39,17,3
336,2,7,4,2,32,39,17,3
337,4,21,5,1,22,6,11,3
338,10,-11,-4,14,7,-41,-31,-1
339,10,-11,-4,14,7,-41,-31,-1
340,10,-11,-4,14,7,-41,-31,-1
341,10,-11,-4,14,7,-41,-31,-1
342,-28,-2,2,-13,-24,25,20,0
343,-28,-2,2,-13,-24,25,20,0
344,2,21,3,0,9,-86,-49,-2
345,2,21,3,0,9,-86,-49,-2
346,10,-3,1,6,7,-20,-14,-5
347,10,-3,1,6,7,-20,-14,-5
348,-32,-18,-7,-2,5,52,-16,-5
349,26,-3,1,-1,0,5,18,6
350,26,-3,1,-1,0,5,18,6
351,26,-3,1,-1,0,5,18,6
352,5,-4,-1,-3,-5,18,41,4
353,8,-6,-8,-1,-2,14,34,2
354,8,-6,-8,-1,-2,14,34,2
355,19,-6,-1,36,-15,-22,14,1
356,-36,-11,-4,-4,7,-32,-45,-6
357,-36,-11,-4,-4,7,-32,-45,-6
358,15,2,1,-1,2,16,9,-2
359,15,2,1,-1,2,16,9,-2
360,15,2,1,-1,2,16,9,-2
361,15,2,1,-1,2,16,9,-2
362,-3,-10,-2,-3,1,-3,28,1
363,-3,-10,-2,-3,1,-3,28,1
364,0,6,0,-6,6,-20,-40,3
365,0,6,0,-6,6,-20,-40,3
366,27,-6,-1,-4,-1,24,-29,-2
367,27,-6,-1,-4,-1,24,-29,-2
368,6,9,5,9,10,-14,-30,-6
369,-14,9,2,-8,-39,-53,-54,-2
370,-14,9,2,-8,-39,-53,-54,-2
371,-14,9,2,-8,-39,-53,-54,-2
372,4,-4,-2,-7,13,23,-17,1
373,37,-22,-1,-19,19,37,36,13
374,37,-22,-1,-19,19,37,36,13
375,37,-22,-1,-19,19,37,36,13
376,-7,-19,-4,2,-19,-4,-11,-7
377,-7,-19,-4,2,-19,-4,-11,-7
378,-7,-19,-4,2,-19,-4,-11,-7
379,-5,18,2,17,27,25,10,-7
380,-5,18,2,17,27,25,10,-7
381,-5,18,2,17,27,25,10,-7
382,-37,22,2,-1,5,-4,-25,-7
383,-37,22,2,-1,5,-4,-25,-7
384,-37,22,2,-1,5,-4,-25,-7
385,-6,-25,-3,-4,-8,-21,-37,-1
386,31,12,-1,-5,-17,-18,58,9
387,31,12,-1,-5,-17,-18,58,9
388,-11,2,1,2,-21,1,13,0
389,-11,2,1,2,-21,1,13,0
390,-11,2,1,2,-21,1,13,0
391,-34,33,6,12,-1,-11,29,-8
392,-12,11,-1,11,11,-33,0,4
393,-12,11,-1,11,11,-33,0,4
394,-12,11,-1,11,11,-33,0,4
395,2,-2,0,-2,-3,62,27,1
396,-26,-8,-3,-3,9,46,-68,-7
397,-26,-8,-3,-3,9,46,-68,-7
398,18,-11,-3,-9,-30,-5,6,0
399,21,-11,-3,-5,-4,-6,5,3
400,21,-11,-3,-5,-4,-6,5,3
401,21,-11,-3,-5,-4,-6,5,3
402,26,8,1,5,2,-2,-29,-4
403,26,8,1,5,2,-2,-29,-4
404,26,8,1,5,2,-2,-29,-4
405,26,8,1,5,2,-2,-29,-4
406,-15,-4,-5,0,24,47,-40,-8
407,-15,-4,-5,0,24,47,-40,-8
408,14,-12,-3,-9,-4,-24,2,0
409,-9,7,1,0,9,-15,1,7
410,-9,7,1,0,9,-15,1,7
411,-9,7,1,0,9,-15,1,7
412,-10,5,0,9,14,-2,9,-3
413,-10,5,0,9,14,-2,9,-3
414,-10,5,0,9,14,-2,9,-3
415,-10,5,0,9,14,-2,9,-3
416,-1,14,0,-1,17,-41,55,2
417,-1,14,0,-1,17,-41,55,2
418,11,-23,-4,-6,-33,-3,-8,3
419,11,-23,-4,-6,-33,-3,-8,3
420,-21,-17,-4,-6,-17,8,-36,-8
421,-21,-17,-4,-6,-17,8,-36,-8
422,-21,-17,-4,-6,-17,8,-36,-8
423,13,-35,-5,-6,-31,8,11,3
424,13,-35,-5,-6,-31,8,11,3
425,13,-35,-5,-6,-31,8,11,3
426,-29,-5,-3,-2,6,17,-55,-2
427,-6,-10,-1,-11,-24,-42,58,1
428,-6,-10,-1,-11,-24,-42,58,1
429,17,-7,-1,1,1,-6,27,5
430,14,4,-2,4,19,35,-36,-2
431,14,4,-2,4,19,35,-36,-2
432,14,4,-2,4,19,35,-36,-2
433,-22,10,2,-3,-5,0,26,-11
434,-22,10,2,-3,-5,0,26,-11
435,-22,10,2,-3,-5,0,26,-11
436,-22,10,2,-3,-5,0,26,-11
437,-22,10,2,-3,-5,0,26,-11
438,12,-3,-3,-15,3,31,24,5
439,-6,-7,-1,1,3,8,42,12
440,3,28,7,7,6,-17,-91,-3
441,3,28,7,7,6,-17,-91,-3
442,-7,20,8,7,-5,67,29,0
443,-7,20,8,7,-5,67,29,0
444,-7,20,8,7,-5,67,29,0
445,-7,20,8,7,-5,67,29,0
446,20,4,-3,-2,-13,-10,1,-8
447,20,4,-3,-2,-13,-10,1,-8
448,-32,-3,2,7,1,-18,45,-4
449,-32,-3,2,7,1,-18,45,-4
450,-20,-13,-4,-2,13,-28,0,-1
451,-20,-13,-4,-2,13,-28,0,-1
452,19,2,-1,0,-18,-9,13,-1
453,19,2,-1,0,-18,-9,13,-1
454,19,2,-1,0,-18,-9,13,-1
455,19,2,-1,0,-18,-9,13,-1
456,-42,-7,4,6,9,24,-4,-3
457,-42,-7,4,6,9,24,-4,-3
458,-20,-4,-4,0,-3,-64,27,-2
459,-20,-4,-4,0,-3,-64,27,-2
460,5,-3,0,-2,-16,-5,33,9
461,5,-3,0,-2,-16,-5,33,9
462,0,-8,-4,-8,0,19,-14,-3
463,-18,1,-2,0,8,-25,-14,-5
464,-18,1,-2,0,8,-25,-14,-5
465,-18,1,-2,0,8,-25,-14,-5
466,1,15,3,-7,0,59,-45,-3
467,1,15,3,-7,0,59,-45,-3
468,-31,-3,-1,4,25,2,45,-6
469,-31,-3,-1,4,25,2,45,-6
470,6,-28,-6,-1,3,4,-1,3
471,6,-28,-6,-1,3,4,-1,3
472,-19,-9,-3,2,-27,-6,-21,1
473,-19,-9,-3,2,-27,-6,-21,1
474,-19,-9,-3,2,-27,-6,-21,1
475,-19,-9,-3,2,-27,-6,-21,1
476,31,1,-5,-3,3,0,16,1
477,31,1,-5,-3,3,0,16,1
478,10,0,-2,3,-2,-4,-43,-4
479,10,0,-2,3,-2,-4,-43,-4
480,15,-21,-2,-8,-2,16,-2,0
481,15,-21,-2,-8,-2,16,-2,0
482,15,-21,-2,-8,-2,16,-2,0
483,15,-21,-2,-8,-2,16,-2,0
484,-6,1,-3,-2,-13,-4,20,1
485,-6,1,-3,-2,-13,-4,20,1
486,-6,1,-3,-2,-13,-4,20,1
487,-9,-1,1,8,21,15,-6,0
488,-9,-1,1,8,21,15,-6,0
489,18,-4,0,3,3,10,-35,-5
490,18,-4,0,3,3,10,-35,-5
491,18,4,-2,-4,-20,24,22,0
492,18,4,-2,-4,-20,24,22,0
493,2,11,3,6,12,-10,1,1
494,2,11,3,6,12,-10,1,1
495,2,11,3,6,12,-10,1,1
496,2,11,3,6,12,-10,1,1
497,-5,-19,-4,-2,14,-7,23,-3
498,-5,-19,-4,-2,14,-7,23,-3
499,0,15,3,1,13,-19,56,6
500,0,15,3,1,13,-19,56,6
501,23,-7,-2,6,4,12,7,-5
502,23,-7,-2,6,4,12,7,-5
503,-2,13,0,1,-3,13,-18,-11
504,7,9,-3,-2,0,-43,13,-4
505,7,9,-3,-2,0,-43,13,-4
506,7,9,-3,-2,0,-43,13,-4
507,-1,-2,2,-7,5,11,-23,6
508,-1,-2,2,-7,5,11,-23,6
509,21,-14,-3,1,1,21,-3,5
510,21,-14,-3,1,1,21,-3,5
511,-17,-10,-6,-5,-44,-101,-94,-11
512,-17,-10,-6,-5,-44,-101,-94,-11
513,-43,0,-1,0,19,17,32,9
514,-30,16,4,-1,16,-4,2,2
515,-30,16,4,-1,16,-4,2,2
516,-30,16,4,-1,16,-4,2,2
517,-6,-14,-4,-8,12,4,27,1
518,-6,-14,-4,-8,12,4,27,1
519,24,1,2,-2,12,22,-7,1
520,24,1,2,-2,12,22,-7,1
521,-23,10,2,4,-8,-64,18,-2
522,-23,10,2,4,-8,-64,18,-2
523,24,-11,-2,-3,-1,17,-44,-1
524,24,-11,-2,-3,-1,17,-44,-1
525,24,-11,-2,-3,-1,17,-44,-1
526,24,-11,-2,-3,-1,17,-44,-1
527,-8,-5,0,-1,-43,21,62,6
528,-8,-5,0,-1,-43,21,62,6
529,-8,-5,0,-1,-43,21,62,6
530,0,-4,0,1,-12,56,26,0
531,-2,1,-5,-5,-5,12,-9,-3
532,-2,1,-5,-5,-5,12,-9,-3
533,-2,1,-5,-5,-5,12,-9,-3
534,17,10,4,6,7,-42,15,0
535,33,4,-2,0,-4,25,30,6
536,33,4,-2,0,-4,25,30,6
537,33,4,-2,0,-4,25,30,6
538,-24,-4,-4,-2,1,24,-11,-6
539,47,-9,0,-7,-15,2,-5,5
540,47,-9,0,-7,-15,2,-5,5
541,-5,17,7,3,19,22,-11,-5
542,-5,17,7,3,19,22,-11,-5
543,-5,17,7,3,19,22,-11,-5
544,-5,17,7,3,19,22,-11,-5
545,-18,-6,0,6,26,8,-1,-1
546,-18,-6,0,6,26,8,-1,-1
547,-18,-6,0,6,26,8,-1,-1
548,-6,10,0,1,-37,-51,24,3
549,-38,3,-1,4,8,-46,-2,-1
550,-38,3,-1,4,8,-46,-2,-1
551,8,-22,-6,-6,-11,28,-3,0
552,8,-22,-6,-6,-11,28,-3,0
553,12,8,-3,-4,6,13,5,0
554,12,8,-3,-4,6,13,5,0
555,11,-8,-4,-5,40,2,-3,7
556,-14,-17,-6,5,24,14,15,-3
557,-14,-17,-6,5,24,14,15,-3
558,-14,-17,-6,5,24,14,15,-3
559,-10,-1,0,1,-11,-43,-44,-2
560,-10,-1,0,1,-11,-43,-44,-2
561,-10,-1,0,1,-11,-43,-44,-2
562,7,2,0,-5,-31,25,-16,-2
563,21,14,5,3,-5,12,43,7
564,21,14,5,3,-5,12,43,7
565,-12,9,-1,0,6,7,-24,-7
566,22,22,3,-4,2,11,2,2
567,22,22,3,-4,2,11,2,2
568,22,22,3,-4,2,11,2,2
569,-61,7,1,-9,15,19,5,-9
570,-61,7,1,-9,15,19,5,-9
571,-18,-17,-1,5,3,1,-27,-7
572,-2,-6,0,5,5,4,-19,-3
573,-2,-6,0,5,5,4,-19,-3
574,-2,-6,0,5,5,4,-19,-3
575,28,-5,-2,-11,-14,5,58,4
576,8,-8,-1,1,1,28,16,3
577,8,-8,-1,1,1,28,16,3
578,8,-8,-1,1,1,28,16,3
579,8,-8,-1,1,1,28,16,3
580,21,-15,-4,-4,-26,-18,-16,3
581,21,-15,-4,-4,-26,-18,-16,3
582,5,6,-1,4,0,12,55,1
583,-19,-16,-4,7,22,5,-7,-6
584,-19,-16,-4,7,22,5,-7,-6
585,-19,-16,-4,7,22,5,-7,-6
586,-20,-7,4,5,-26,-49,-40,-7
587,-1,6,3,0,11,2,2,-5
588,-1,6,3,0,11,2,2,-5
589,-1,6,3,0,11,2,2,-5
590,10,7,-3,-10,-7,-6,-20,-3
591,10,7,-3,-10,-7,-6,-20,-3
592,10,7,-3,-10,-7,-6,-20,-3
593,26,-3,1,-3,-2,23,17,6
594,12,-4,-1,2,-3,12,-16,0
595,12,-4,-1,2,-3,12,-16,0
596,12,-4,-1,2,-3,12,-16,0
597,12,-4,-1,2,-3,12,-16,0
598,17,0,-1,4,2,8,-3,-3
599,17,0,-1,4,2,8,-3,-3
600,7,7,1,1,15,-13,-19,-1
601,-7,-20,-4,4,10,-6,29,4
602,-7,-20,-4,4,10,-6,29,4
603,-99,15,5,-5,-11,-9,-2,-9
604,-46,-7,-5,-12,-3,-20,32,-3
605,-46,-7,-5,-12,-3,-20,32,-3
606,1,2,4,-3,-15,26,-19,2
607,1,2,4,-3,-15,26,-19,2
608,1,2,4,-3,-15,26,-19,2
609,39,-10,-2,9,5,12,-4,0
610,-70,-1,-1,-9,-30,-11,-12,-10
611,-70,-1,-1,-9,-30,-11,-12,-10
612,-70,-1,-1,-9,-30,-11,-12,-10
613,58,-14,-1,5,6,3,2,8
614,58,-14,-1,5,6,3,2,8
615,58,-14,-1,5,6,3,2,8
616,23,14,-1,4,21,10,-12,-2
617,20,9,-1,0,-13,22,-3,-2
618,20,9,-1,0,-13,22,-3,-2
619,-5,14,3,-1,1,-1,3,-2
620,-22,6,-2,-3,9,12,1,-2
621,-22,6,-2,-3,9,12,1,-2
622,31,-2,-2,-4,-7,-11,-6,-1
623,-1,-4,-3,-5,-21,-25,17,-2
624,-1,-4,-3,-5,-21,-25,17,-2
625,-1,-4,-3,-5,-21,-25,17,-2
626,-29,12,5,5,-36,19,77,2
627,0,6,1,1,2,9,-3,1
628,14,-1,-2,3,22,20,-1,2
629,-4,-2,-2,-3,-21,-11,0,-2
630,-4,-2,-2,-3,-21,-11,0,-2
631,2,-5,-1,0,15,-19,-9,-2
632,17,-20,-1,-2,-43,69,-42,0
633,17,-20,-1,-2,-43,69,-42,0
634,17,-20,-1,-2,-43,69,-42,0
635,-13,-8,-5,3,23,17,39,2
636,-13,-8,-5,3,23,17,39,2
637,-5,-5,-2,-2,3,4,0,-4
638,-5,-5,-2,-2,3,4,0,-4
639,-14,0,-1,-5,3,-39,-50,-9
640,-14,0,-1,-5,3,-39,-50,-9
641,27,-16,-3,-9,-18,-11,14,9
642,27,-16,-3,-9,-18,-11,14,9
643,27,-16,-3,-9,-18,-11,14,9
644,27,-16,-3,-9,-18,-11,14,9
645,-38,4,4,1,15,-3,28,1
646,-38,4,4,1,15,-3,28,1
647,-38,4,4,1,15,-3,28,1
648,21,11,-2,-13,-51,-14,-2,2
649,33,3,-2,1,19,-12,-13,-4
650,33,3,-2,1,19,-12,-13,-4
651,33,3,-2,1,19,-12,-13,-4
652,-44,-13,-3,-9,-11,41,25,-5
653,-44,-13,-3,-9,-11,41,25,-5
654,-44,-13,-3,-9,-11,41,25,-5
655,5,10,0,4,18,-28,-6,-4
656,5,10,0,4,18,-28,-6,-4
657,33,-2,0,0,21,-8,-38,0
658,33,-2,0,0,21,-8,-38,0
659,2,16,0,-3,-18,-4,-9,20
660,2,16,0,-3,-18,-4,-9,20
661,-15,12,5,13,17,-15,14,-1
662,-15,12,5,13,17,-15,14,-1
663,-15,12,5,13,17,-15,14,-1
664,-15,12,5,13,17,-15,14,-1
665,-6,9,3,4,9,15,10,-6
666,-6,9,3,4,9,15,10,-6
667,-21,1,-2,7,20,17,-17,-13
668,-21,1,-2,7,20,17,-17,-13
669,-16,-21,-3,2,4,3,-19,1
670,-16,-21,-3,2,4,3,-19,1
671,-16,-21,-3,2,4,3,-19,1
672,-16,-21,-3,2,4,3,-19,1
673,7,21,-2,-7,27,53,-25,-4
674,7,21,-2,-7,27,53,-25,-4
675,29,-3,1,9,12,-33,-11,7
676,29,-3,1,9,12,-33,-11,7
677,29,-3,1,9,12,-33,-11,7
678,29,-3,1,9,12,-33,-11,7
679,29,-3,1,9,12,-33,-11,7
680,28,-18,-4,-1,-15,-45,-23,-5
681,28,-18,-4,-1,-15,-45,-23,-5
682,-1,-2,-1,1,11,-17,-28,-5
683,-1,-2,-1,1,11,-17,-28,-5
684,-1,-2,-1,1,11,-17,-28,-5
685,-48,13,3,1,1,32,-15,-3
686,-48,13,3,1,1,32,-15,-3
687,-48,13,3,1,1,32,-15,-3
688,-3,-3,1,-1,-1,-40,-12,1
689,31,-19,-7,-5,-8,-30,15,-1
690,31,-19,-7,-5,-8,-30,15,-1
691,-4,10,0,-1,0,-14,18,-11
692,-4,10,0,-1,0,-14,18,-11
693,-4,10,0,-1,0,-14,18,-11
694,-36,2,1,-5,29,-34,28,-6
695,-36,2,1,-5,29,-34,28,-6
696,-36,2,1,-5,29,-34,28,-6
697,-36,2,1,-5,29,-34,28,-6
698,-3,-2,-1,1,-24,22,30,-2
699,-3,-2,-1,1,-24,22,30,-2
700,-3,-2,-1,1,-24,22,30,-2
701,17,-4,-1,-4,10,11,-5,5
702,17,-4,-1,-4,10,11,-5,5
703,17,-4,-1,-4,10,11,-5,5
704,17,-4,-1,-4,10,11,-5,5
705,17,-4,-1,-4,10,11,-5,5
706,-7,-12,3,0,7,-62,7,3
707,-7,-12,3,0,7,-62,7,3
708,-7,-12,3,0,7,-62,7,3
709,3,-4,-3,-2,-11,19,-6,-3
710,3,-4,-3,-2,-11,19,-6,-3
711,17,18,0,2,-16,-8,5,-2
712,17,18,0,2,-16,-8,5,-2
713,17,18,0,2,-16,-8,5,-2
714,17,18,0,2,-16,-8,5,-2
715,12,9,-4,-4,-16,20,5,-1
716,12,9,-4,-4,-16,20,5,-1
717,12,9,-4,-4,-16,20,5,-1
718,12,9,-4,-4,-16,20,5,-1
719,-38,-12,-1,-2,-2,-1,-16,-4
720,-38,-12,-1,-2,-2,-1,-16,-4
721,-25,-8,1,6,24,18,-18,2
722,-25,-8,1,6,24,18,-18,2
723,16,8,1,-3,-1,49,23,-2
724,16,8,1,-3,-1,49,23,-2
725,-11,9,-4,-9,-18,-12,6,-6
726,-11,9,-4,-9,-18,-12,6,-6
727,-11,9,-4,-9,-18,-12,6,-6
728,-11,9,-4,-9,-18,-12,6,-6
729,-11,9,-4,-9,-18,-12,6,-6
730,7,-15,-3,3,5,-2,-2,4
731,7,-15,-3,3,5,-2,-2,4
732,-25,4,6,-2,-17,29,-38,2
733,-25,4,6,-2,-17,29,-38,2
734,-25,4,6,-2,-17,29,-38,2
735,4,7,2,1,-2,-6,26,0
736,4,1,-6,2,4,0,-2,-2
737,4,1,-6,2,4,0,-2,-2
738,4,1,-6,2,4,0,-2,-2
739,12,-6,0,6,3,-14,-11,-3
740,12,-6,0,6,3,-14,-11,-3
741,12,-6,0,6,3,-14,-11,-3
742,9,-3,3,4,1,-65,-3,-4
743,9,-3,3,4,1,-65,-3,-4
744,9,-3,3,4,1,-65,-3,-4
745,9,-3,3,4,1,-65,-3,-4
746,3,-12,-2,0,-15,-11,-1,3
747,3,-12,-2,0,-15,-11,-1,3
748,3,-12,-2,0,-15,-11,-1,3
749,3,-12,-2,0,-15,-11,-1,3
750,15,0,-1,3,13,25,13,-1
751,15,0,-1,3,13,25,13,-1
752,9,4,1,2,29,63,-7,2
753,9,4,1,2,29,63,-7,2
754,9,4,1,2,29,63,-7,2
755,9,4,1,2,29,63,-7,2
756,9,4,1,2,29,63,-7,2
757,9,4,1,2,29,63,-7,2
758,1,1,-4,-8,-55,-9,-2,-2
759,1,1,-4,-8,-55,-9,-2,-2
760,-7,11,3,7,19,10,2,1
761,-7,11,3,7,19,10,2,1
762,-25,-6,-1,-13,-17,28,-17,-7
763,6,-6,-2,-1,19,30,-14,5
764,6,-6,-2,-1,19,30,-14,5
765,6,-6,-2,-1,19,30,-14,5
766,25,-6,-5,-8,-10,-14,2,3
767,25,-6,-5,-8,-10,-14,2,3
768,25,-6,-5,-8,-10,-14,2,3
769,25,-6,-5,-8,-10,-14,2,3
770,-14,1,0,3,3,-15,-18,-5
771,-14,1,0,3,3,-15,-18,-5
772,2,-1,-2,-6,-1,9,-11,12
773,2,-1,-2,-6,-1,9,-11,12
774,2,-1,-2,-6,-1,9,-11,12
775,2,-1,-2,-6,-1,9,-11,12
776,10,-3,3,8,8,8,16,1
777,10,-3,3,8,8,8,16,1
778,10,-3,3,8,8,8,16,1
779,10,-3,3,8,8,8,16,1
780,-1,-8,-3,-5,-15,-10,-15,-1
781,-1,-8,-3,-5,-15,-10,-15,-1
782,10,-8,1,2,4,13,14,5
783,10,-8,1,2,4,13,14,5
784,-9,9,-1,-1,4,2,13,-2
785,-9,9,-1,-1,4,2,13,-2
786,3,-7,-2,-3,15,-43,-19,-5
787,3,-7,-2,-3,15,-43,-19,-5
788,3,-7,-2,-3,15,-43,-19,-5
789,3,-7,-2,-3,15,-43,-19,-5
790,-14,11,1,0,16,3,41,1
791,-14,11,1,0,16,3,41,1
792,-57,-1,0,2,-9,-54,-3,-6
793,-57,-1,0,2,-9,-54,-3,-6
794,-12,-3,-1,-8,-26,-46,7,0
795,-12,-3,-1,-8,-26,-46,7,0
796,-26,-2,-1,3,21,30,-72,-4
797,-26,-2,-1,3,21,30,-72,-4
798,-26,-2,-1,3,21,30,-72,-4
799,24,-7,0,2,-14,30,27,1
800,24,-7,0,2,-14,30,27,1
801,24,-7,0,2,-14,30,27,1
802,24,-7,0,2,-14,30,27,1
803,37,-6,-5,0,0,15,-28,-3
804,37,-6,-5,0,0,15,-28,-3
805,-4,-2,0,-5,-30,-35,8,-3
806,-4,-2,0,-5,-30,-35,8,-3
807,-4,-2,0,-5,-30,-35,8,-3
808,-4,-2,0,-5,-30,-35,8,-3
809,-6,-3,1,5,9,-10,6,-3
810,-6,-3,1,5,9,-10,6,-3
811,-18,-7,-2,0,-19,5,-7,-3
812,-18,-7,-2,0,-19,5,-7,-3
813,7,-13,-1,-5,-12,45,-10,4
814,7,-13,-1,-5,-12,45,-10,4
815,7,-13,-1,-5,-12,45,-10,4
816,-4,8,3,-4,12,18,11,-1
817,-4,8,3,-4,12,18,11,-1
818,-4,8,3,-4,12,18,11,-1
819,-3,7,-2,-3,-17,11,22,1
820,-19,9,3,2,1,4,59,5
821,-19,9,3,2,1,4,59,5
822,8,-1,-1,3,5,38,48,3
823,-27,-3,-4,1,-10,-8,10,-2
824,-27,-3,-4,1,-10,-8,10,-2
825,-27,-3,-4,1,-10,-8,10,-2
826,14,-8,-3,-6,27,51,13,-2
827,14,-8,-3,-6,27,51,13,-2
828,14,-8,-3,-6,27,51,13,-2
829,14,-8,-3,-6,27,51,13,-2
830,-19,-18,-7,-1,-7,-19,-13,-5
831,-19,-18,-7,-1,-7,-19,-13,-5
832,22,11,5,0,-4,-66,41,5
833,22,11,5,0,-4,-66,41,5
834,-11,-12,-4,3,5,-13,25,-3
835,-11,-12,-4,3,5,-13,25,-3
836,2,-6,-3,1,-12,13,9,3
837,2,-6,-3,1,-12,13,9,3
838,-13,36,8,4,13,50,5,-4
839,-13,36,8,4,13,50,5,-4
840,-7,-3,1,-1,-17,-81,-26,-2
841,9,-4,-1,-6,-26,-7,-19,4
842,9,-4,-1,-6,-26,-7,-19,4
843,10,0,1,2,5,6,11,-3
844,10,0,1,2,5,6,11,-3
845,10,0,1,2,5,6,11,-3
846,10,0,1,2,5,6,11,-3
847,-4,19,2,3,1,10,-22,-4
848,-4,19,2,3,1,10,-22,-4
849,-4,19,2,3,1,10,-22,-4
850,-4,19,2,3,1,10,-22,-4
851,6,-9,-3,-4,-5,-5,29,0
852,6,-9,-3,-4,-5,-5,29,0
853,40,-11,-3,4,-12,117,-7,5
854,40,-11,-3,4,-12,117,-7,5
855,40,-11,-3,4,-12,117,-7,5
856,-4,-1,-3,0,12,-15,-25,1
857,-4,-1,-3,0,12,-15,-25,1
858,-4,-1,-3,0,12,-15,-25,1
859,-4,-1,-3,0,12,-15,-25,1
860,-13,-6,-2,-3,7,-28,2,-1
861,-13,-6,-2,-3,7,-28,2,-1
862,-13,-6,-2,-3,7,-28,2,-1
863,-8,-9,-6,-3,-1,3,3,-5
864,-8,-9,-6,-3,-1,3,3,-5
865,-8,-9,-6,-3,-1,3,3,-5
866,-8,-9,-6,-3,-1,3,3,-5
867,-7,-3,-3,-2,-3,-19,-8,-2
868,-7,-3,-3,-2,-3,-19,-8,-2
869,-7,-3,-3,-2,-3,-19,-8,-2
870,-7,-3,-3,-2,-3,-19,-8,-2
871,-41,16,6,5,-19,23,8,0
872,-41,16,6,5,-19,23,8,0
873,13,-5,2,-1,6,-7,1,3
874,13,-5,2,-1,6,-7,1,3
875,13,-5,2,-1,6,-7,1,3
876,13,-5,2,-1,6,-7,1,3
877,1,-2,-2,-4,8,-10,-17,-7
878,1,-2,-2,-4,8,-10,-17,-7
879,1,-2,-2,-4,8,-10,-17,-7
880,1,-2,-2,-4,8,-10,-17,-7
881,1,-2,-2,-4,8,-10,-17,-7
882,38,8,-1,-4,1,-18,31,0
883,9,-14,-6,6,6,38,72,6
884,9,-14,-6,6,6,38,72,6
885,15,-2,-2,-11,-10,-4,-35,-1
886,15,-2,-2,-11,-10,-4,-35,-1
887,-12,-12,-3,10,13,11,5,1
888,-13,12,-1,3,14,-82,-7,-8
889,-13,12,-1,3,14,-82,-7,-8
890,-13,12,-1,3,14,-82,-7,-8
891,-13,12,-1,3,14,-82,-7,-8
892,-16,-15,-3,-3,-10,11,5,2
893,-16,-15,-3,-3,-10,11,5,2
894,12,4,1,3,16,-2,31,0
895,28,-15,-1,-4,-24,6,-35,6
896,28,-15,-1,-4,-24,6,-35,6
897,28,-15,-1,-4,-24,6,-35,6
898,-10,4,-4,1,9,5,15,3
899,-10,4,-4,1,9,5,15,3
900,-10,4,-4,1,9,5,15,3
901,-10,4,-4,1,9,5,15,3
902,5,-1,3,6,24,5,13,0
903,5,-1,3,6,24,5,13,0
904,-24,10,0,-8,9,12,-4,-3
905,-24,10,0,-8,9,12,-4,-3
906,10,-12,-3,-5,3,34,-11,-3
907,10,-12,-3,-5,3,34,-11,-3
908,10,-12,-3,-5,3,34,-11,-3
909,-14,11,-1,-2,-14,33,-26,-3
910,-14,11,-1,-2,-14,33,-26,-3
911,-14,11,-1,-2,-14,33,-26,-3
912,19,-9,-2,0,-6,-11,-7,-4
913,-4,-11,0,4,6,-20,18,0
914,-4,-11,0,4,6,-20,18,0
915,-13,-5,-1,1,0,-5,-7,1
916,-7,31,3,-1,-24,-21,3,1
917,-7,31,3,-1,-24,-21,3,1
918,-7,31,3,-1,-24,-21,3,1
919,-38,-8,-1,0,-23,-101,-6,9
920,-38,-8,-1,0,-23,-101,-6,9
921,-38,-8,-1,0,-23,-101,-6,9
922,19,-5,0,3,26,43,-7,-7
923,19,-5,0,3,26,43,-7,-7
924,-24,5,1,4,12,1,2,-4
925,-24,5,1,4,12,1,2,-4
926,2,9,2,3,4,42,-12,-5
927,2,9,2,3,4,42,-12,-5
928,-16,9,2,-1,8,-32,20,-1
929,-16,9,2,-1,8,-32,20,-1
930,-16,9,2,-1,8,-32,20,-1
931,-9,-4,1,-4,-1,32,-8,1
932,11,-7,4,2,-4,12,23,-3
933,11,-7,4,2,-4,12,23,-3
934,-8,-3,2,-2,-3,-9,1,-3
935,-8,-3,2,-2,-3,-9,1,-3
936,20,-2,2,0,3,23,-5,2
937,20,-2,2,0,3,23,-5,2
938,6,-9,-6,-6,-18,-27,15,4
939,6,-9,-6,-6,-18,-27,15,4
940,6,-9,-6,-6,-18,-27,15,4
941,0,16,-1,0,-8,-84,-21,1
942,7,12,0,3,20,0,4,-1
943,7,12,0,3,20,0,4,-1
944,10,11,2,1,-38,-16,-1,0
945,19,-2,-6,-6,-10,-2,-19,0
946,19,-2,-6,-6,-10,-2,-19,0
947,19,-2,-6,-6,-10,-2,-19,0
948,17,10,0,-5,-16,23,-18,-6
949,5,-15,-9,-7,-7,24,23,1
950,5,-15,-9,-7,-7,24,23,1
951,4,9,2,-2,23,-7,-14,0
952,-14,-7,-3,-2,5,4,-27,-7
953,-14,-7,-3,-2,5,4,-27,-7
954,-34,-9,-9,-6,-2,-13,0,-4
955,-11,-5,3,2,7,82,20,2
956,-11,-5,3,2,7,82,20,2
957,-11,-5,3,2,7,82,20,2
958,-14,0,1,-3,6,-57,-13,-7
959,-14,0,1,-3,6,-57,-13,-7
960,-14,0,1,-3,6,-57,-13,-7
961,14,2,2,5,-5,-25,-39,2
962,14,2,2,5,-5,-25,-39,2
963,-12,-2,3,0,-3,-42,-18,2
964,-12,-2,3,0,-3,-42,-18,2
965,2,1,-2,4,12,30,37,0
966,2,1,-2,4,12,30,37,0
967,2,1,-2,4,12,30,37,0
968,-12,8,3,-1,13,10,-33,1
969,-12,8,3,-1,13,10,-33,1
970,-12,8,3,-1,13,10,-33,1
971,-12,8,3,-1,13,10,-33,1
972,10,-1,-3,-10,-23,10,18,0
973,10,-1,-3,-10,-23,10,18,0
974,3,-5,1,2,6,37,11,1
975,-20,3,3,1,11,15,29,-4
976,-20,3,3,1,11,15,29,-4
977,-20,3,3,1,11,15,29,-4
978,-19,-14,-2,2,14,-6,-22,-1
979,-19,-14,-2,2,14,-6,-22,-1
980,-19,-14,-2,2,14,-6,-22,-1
981,4,2,-5,-1,-3,1,-47,-2
982,-12,-6,-2,-1,2,-3,-16,-2
983,-12,-6,-2,-1,2,-3,-16,-2
984,21,-6,1,14,3,18,-32,0
985,21,-6,1,14,3,18,-32,0
986,32,-9,-7,-8,-1,-32,8,3
987,32,-9,-7,-8,-1,-32,8,3
988,26,-3,-2,-1,-33,-29,-33,0
989,26,-3,-2,-1,-33,-29,-33,0
990,26,-3,-2,-1,-33,-29,-33,0
991,26,-3,-2,-1,-33,-29,-33,0
992,-4,-1,1,2,-1,-1,16,3
993,-4,-1,1,2,-1,-1,16,3
994,-4,-1,1,2,-1,-1,16,3
995,-4,-1,1,2,-1,-1,16,3
996,2,-10,-5,-10,-13,-9,23,0
997,2,-10,-5,-10,-13,-9,23,0
998,-4,-7,4,6,-15,18,-17,2
999,-4,-7,4,6,-15,18,-17,2
1000,-4,-7,4,6,-15,18,-17,2
1001,-4,-7,4,6,-15,18,-17,2
1002,-14,-1,-3,-3,-15,9,-32,-7
1003,-14,-1,-3,-3,-15,9,-32,-7
1004,-14,-1,-3,-3,-15,9,-32,-7
1005,-14,-1,-3,-3,-15,9,-32,-7
1006,-29,7,1,1,6,7,7,0
1007,-29,7,1,1,6,7,7,0
1008,-29,7,1,1,6,7,7,0
1009,10,11,1,0,-2,31,12,-1
1010,10,11,1,0,-2,31,12,-1
1011,10,11,1,0,-2,31,12,-1
1012,-2,13,0,4,5,8,11,6
1013,-2,13,0,4,5,8,11,6
1014,-2,13,0,4,5,8,11,6
1015,-2,13,0,4,5,8,11,6
1016,-10,-2,0,-4,12,-23,3,-8
1017,-10,-2,0,-4,12,-23,3,-8
1018,1,3,-2,-2,-4,69,5,0
1019,1,3,-2,-2,-4,69,5,0
1020,10,-3,0,-2,-12,-11,20,11
1021,10,-3,0,-2,-12,-11,20,11
1022,10,-5,-5,3,20,33,-14,-8
1023,11,2,-3,13,39,20,-34,-4
1024,11,2,-3,13,39,20,-34,-4
1025,11,2,-3,13,39,20,-34,-4
1026,6,-2,0,-4,-22,44,25,-1
1027,6,-2,0,-4,-22,44,25,-1
1028,10,-6,0,10,8,-27,-11,4
1029,8,-12,0,-6,-4,20,2,2
1030,-9,0,0,-6,-21,-1,-23,-10
1031,-9,0,0,-6,-21,-1,-23,-10
1032,-9,0,0,-6,-21,-1,-23,-10
1033,-9,0,0,-6,-21,-1,-23,-10
1034,16,-4,-2,-3,9,-4,-19,11
1035,16,-4,-2,-3,9,-4,-19,11
1036,-7,5,5,-4,-10,-11,-19,-6
1037,-7,5,5,-4,-10,-11,-19,-6
1038,10,-5,-4,2,8,21,-17,4
1039,-31,-10,-4,0,5,-6,21,-13
1040,-31,-10,-4,0,5,-6,21,-13
1041,-31,-10,-4,0,5,-6,21,-13
1042,5,-1,2,6,10,9,11,3
1043,5,-1,2,6,10,9,11,3
1044,5,-1,2,6,10,9,11,3
1045,5,12,0,0,1,29,30,10
1046,5,12,0,0,1,29,30,10
1047,12,-2,-3,4,10,-26,6,3
1048,14,3,-4,-6,-6,-13,-21,-6
1049,14,3,-4,-6,-6,-13,-21,-6
1050,14,3,-4,-6,-6,-13,-21,-6
1051,-4,6,2,-2,-18,-61,-54,-7
1052,-4,6,2,-2,-18,-61,-54,-7
1053,-4,6,2,-2,-18,-61,-54,-7
1054,-4,6,2,-2,-18,-61,-54,-7
1055,-9,-6,-4,-7,-30,-1,41,-2
1056,-9,-6,-4,-7,-30,-1,41,-2
1057,-4,-14,-5,-2,12,-27,-12,-8
1058,-13,-1,1,3,8,39,26,-4
1059,-13,-1,1,3,8,39,26,-4
1060,-13,-1,1,3,8,39,26,-4
1061,8,-7,-3,-2,11,11,33,5
1062,8,-7,-3,-2,11,11,33,5
1063,8,-7,-3,-2,11,11,33,5
1064,8,-7,-3,-2,11,11,33,5
1065,26,-12,-7,-2,29,20,-17,-3
1066,-39,5,0,1,0,-61,-66,-12
1067,-6,-3,0,-1,8,-8,-23,-8
1068,33,4,-2,-3,-6,17,16,4
1069,33,4,-2,-3,-6,17,16,4
1070,33,4,-2,-3,-6,17,16,4
1071,-3,-5,-4,-9,-40,45,-10,-2
1072,-3,-5,-4,-9,-40,45,-10,-2
1073,-3,-5,-4,-9,-40,45,-10,-2
1074,-17,-3,3,1,4,0,8,-7
1075,-17,-3,3,1,4,0,8,-7
1076,-17,-3,3,1,4,0,8,-7
1077,-11,-6,-2,5,39,-9,22,6
1078,-11,-6,-2,5,39,-9,22,6
1079,-11,-6,-2,5,39,-9,22,6
1080,-11,-6,-2,5,39,-9,22,6
1081,10,10,8,9,25,-6,-3,0
1082,10,10,8,9,25,-6,-3,0
1083,18,-2,0,-6,-7,23,24,0
1084,-26,-5,-3,2,-7,44,-15,-7
1085,-26,-5,-3,2,-7,44,-15,-7
1086,-26,-5,-3,2,-7,44,-15,-7
1087,36,2,0,4,1,13,6,4
1088,36,2,0,4,1,13,6,4
1089,36,2,0,4,1,13,6,4
1090,-2,-4,1,-4,-2,-17,15,2
1091,-8,-5,-5,-7,-8,-39,-10,5
1092,-8,-5,-5,-7,-8,-39,-10,5
1093,6,9,0,2,4,-19,-14,-6
1094,4,10,4,0,-22,28,16,7
1095,4,10,4,0,-22,28,16,7
1096,4,10,4,0,-22,28,16,7
1097,-21,7,-1,-1,4,0,33,1
1098,-21,7,-1,-1,4,0,33,1
1099,-21,7,-1,-1,4,0,33,1
1100,-21,7,-1,-1,4,0,33,1
1101,-12,-2,0,3,-3,-25,-18,3
1102,-12,-2,0,3,-3,-25,-18,3
1103,12,-16,-6,0,14,-2,11,1
1104,-11,-8,-2,3,-2,10,13,7
1105,-11,-8,-2,3,-2,10,13,7
1106,-11,-8,-2,3,-2,10,13,7
1107,36,7,-1,0,8,12,6,1
1108,36,7,-1,0,8,12,6,1
1109,36,7,-1,0,8,12,6,1
1110,36,7,-1,0,8,12,6,1
1111,7,-12,-3,-3,3,-29,-14,-6
1112,7,-12,-3,-3,3,-29,-14,-6
1113,-25,-1,6,7,-15,-8,17,3
1114,-25,-1,6,7,-15,-8,17,3
1115,-18,2,-1,-8,2,-18,-27,-17
1116,-18,2,-1,-8,2,-18,-27,-17
1117,-10,-6,2,-5,-33,12,-10,0
1118,-10,-6,2,-5,-33,12,-10,0
1119,-10,-6,2,-5,-33,12,-10,0
1120,-10,-6,2,-5,-33,12,-10,0
1121,-16,3,-1,0,24,-10,2,-9
1122,-16,3,-1,0,24,-10,2,-9
1123,5,12,-1,-2,-11,24,-25,0
1124,5,12,-1,-2,-11,24,-25,0
1125,2,-7,-2,-4,-9,3,27,10
1126,2,-7,-2,-4,-9,3,27,10
1127,-23,0,-3,0,20,22,-12,-2
1128,-23,0,-3,0,20,22,-12,-2
1129,-23,0,-3,0,20,22,-12,-2
1130,-23,0,-3,0,20,22,-12,-2
1131,-1,-1,-3,2,1,-7,53,2
1132,-1,-1,-3,2,1,-7,53,2
1133,-8,-1,0,0,3,-16,3,-1
1134,-8,-1,0,0,3,-16,3,-1
1135,4,-5,-6,-4,-24,-22,2,0
1136,4,-5,-6,-4,-24,-22,2,0
1137,4,-5,-6,-4,-24,-22,2,0
1138,-13,-5,1,-3,5,-35,-9,-8
1139,-13,-5,1,-3,5,-35,-9,-8
1140,-13,-5,1,-3,5,-35,-9,-8
1141,-13,-5,1,-3,5,-35,-9,-8
1142,-2,2,-3,-6,-30,-61,-28,-7
1143,-2,2,-3,-6,-30,-61,-28,-7
1144,-2,2,-3,-6,-30,-61,-28,-7
1145,-2,2,-3,-6,-30,-61,-28,-7
1146,-1,-9,0,8,-16,24,-10,1
1147,-1,-9,0,8,-16,24,-10,1
1148,3,1,-1,1,4,-21,0,3
1149,-10,-1,2,1,13,10,-60,1
1150,-10,-1,2,1,13,10,-60,1
1151,-10,-1,2,1,13,10,-60,1
1152,20,8,6,6,13,50,57,6
1153,20,8,6,6,13,50,57,6
1154,20,8,6,6,13,50,57,6
1155,20,8,6,6,13,50,57,6
1156,-46,16,4,-17,-27,-21,-35,-8
1157,-46,16,4,-17,-27,-21,-35,-8
1158,-46,16,4,-17,-27,-21,-35,-8
1159,15,-18,-2,4,16,2,14,-1
1160,15,-18,-2,4,16,2,14,-1
1161,15,-18,-2,4,16,2,14,-1
1162,41,30,1,4,7,14,16,2
1163,41,30,1,4,7,14,16,2
1164,41,30,1,4,7,14,16,2
1165,41,30,1,4,7,14,16,2
1166,-31,-6,1,-6,-7,-33,-3,2
1167,-31,-6,1,-6,-7,-33,-3,2
1168,-28,1,2,0,-6,-8,19,5
1169,11,-11,-8,-4,-6,-9,13,0
1170,11,-11,-8,-4,-6,-9,13,0
1171,11,-11,-8,-4,-6,-9,13,0
1172,3,15,0,0,14,-24,-8,-8
1173,3,15,0,0,14,-24,-8,-8
1174,3,15,0,0,14,-24,-8,-8
1175,3,15,0,0,14,-24,-8,-8
1176,7,-16,-1,0,2,-32,-27,-1
1177,7,-16,-1,0,2,-32,-27,-1
1178,7,-16,-1,0,2,-32,-27,-1
1179,-10,1,1,0,5,-19,-52,-4
1180,5,8,0,1,5,26,36,0
1181,5,8,0,1,5,26,36,0
1182,5,8,0,1,5,26,36,0
1183,0,-13,-2,7,-5,61,-6,2
1184,0,-13,-2,7,-5,61,-6,2
1185,0,-13,-2,7,-5,61,-6,2
1186,0,-13,-2,7,-5,61,-6,2
1187,21,0,-7,-1,16,7,-2,-1
1188,21,0,-7,-1,16,7,-2,-1
1189,16,6,0,4,7,2,14,0
1190,6,-6,1,4,-23,-32,1,1
1191,6,-6,1,4,-23,-32,1,1
1192,6,-6,1,4,-23,-32,1,1
1193,5,-6,-4,-8,-5,-37,-25,0
1194,5,-6,-4,-8,-5,-37,-25,0
1195,5,-6,-4,-8,-5,-37,-25,0
1196,5,-6,-4,-8,-5,-37,-25,0
1197,-7,-6,-3,5,36,45,5,-2
1198,-7,-6,-3,5,36,45,5,-2
1199,-1,1,-6,-3,-35,2,36,-7
1200,-1,1,-6,-3,-35,2,36,-7
1201,-18,1,1,1,6,18,-33,-7
1202,-18,1,1,1,6,18,-33,-7
1203,-18,1,1,1,6,18,-33,-7
1204,-4,4,-2,3,2,2,-3,-1
1205,-4,4,-2,3,2,2,-3,-1
1206,-4,4,-2,3,2,2,-3,-1
1207,-9,-6,-5,-10,-8,8,22,0
1208,38,-1,-4,-1,16,32,3,3
1209,38,-1,-4,-1,16,32,3,3
1210,-17,-12,-7,-6,5,14,-29,-7
1211,-8,-10,0,1,-1,-16,-11,7
1212,-8,-10,0,1,-1,-16,-11,7
1213,-8,-10,0,1,-1,-16,-11,7
1214,-46,-8,-3,-1,-21,-26,18,-6
1215,-46,-8,-3,-1,-21,-26,18,-6
1216,-46,-8,-3,-1,-21,-26,18,-6
1217,-46,-8,-3,-1,-21,-26,18,-6
1218,18,11,0,-9,-15,64,32,2
1219,18,11,0,-9,-15,64,32,2
1220,8,21,3,-6,-1,27,39,5
1221,-20,8,5,-1,-1,57,17,-4
1222,-20,8,5,-1,-1,57,17,-4
1223,-20,8,5,-1,-1,57,17,-4
1224,-26,-1,-1,7,-2,-24,23,2
1225,-26,-1,-1,7,-2,-24,23,2
1226,-26,-1,-1,7,-2,-24,23,2
1227,32,1,4,7,17,53,5,9
1228,16,-7,-4,-12,4,3,-27,1
1229,16,-7,-4,-12,4,3,-27,1
1230,-46,-8,-1,2,8,7,9,-1
1231,6,-7,-2,-1,2,-63,-7,-4
1232,6,-7,-2,-1,2,-63,-7,-4
1233,6,-7,-2,-1,2,-63,-7,-4
1234,37,21,1,-4,-23,-11,-8,4
1235,37,21,1,-4,-23,-11,-8,4
1236,37,21,1,-4,-23,-11,-8,4
1237,37,21,1,-4,-23,-11,-8,4
1238,-13,-16,-5,-3,7,8,-40,4
1239,-13,-16,-5,-3,7,8,-40,4
1240,6,5,3,7,3,-27,-23,0
1241,6,5,3,7,3,-27,-23,0
1242,6,5,3,7,3,-27,-23,0
1243,10,-14,-3,-2,2,-2,37,9
1244,10,-14,-3,-2,2,-2,37,9
1245,-13,-6,1,2,0,-3,45,0
1246,-13,-6,1,2,0,-3,45,0
1247,-13,-6,1,2,0,-3,45,0
1248,-13,-6,1,2,0,-3,45,0
1249,6,11,1,1,0,8,-12,-1
1250,6,11,1,1,0,8,-12,-1
1251,-21,7,-2,3,12,-63,2,-2
1252,-20,3,1,-2,3,11,-27,-4
1253,-20,3,1,-2,3,11,-27,-4
1254,-20,3,1,-2,3,11,-27,-4
1255,-12,-9,-3,-2,13,-19,-23,-5
1256,-12,-9,-3,-2,13,-19,-23,-5
1257,-12,-9,-3,-2,13,-19,-23,-5
1258,-3,3,2,5,5,13,32,-2
1259,-3,3,2,5,5,13,32,-2
1260,7,11,0,-2,-32,20,-14,-2
1261,7,11,0,-2,-32,20,-14,-2
1262,15,4,1,-8,-4,11,18,3
1263,27,3,2,-2,-15,-5,-31,2
1264,-16,8,2,-1,-4,1,-32,-8
1265,-16,8,2,-1,-4,1,-32,-8
1266,-16,8,2,-1,-4,1,-32,-8
1267,-19,-10,-4,0,8,18,20,3
1268,14,0,0,2,8,15,1,-1
1269,14,0,0,2,8,15,1,-1
1270,11,-3,-2,0,17,32,-12,-5
1271,19,19,1,-11,-22,7,12,-2
1272,19,19,1,-11,-22,7,12,-2
1273,-8,-5,0,5,23,8,-21,1
1274,-8,-5,0,5,23,8,-21,1
1275,-8,-5,0,5,23,8,-21,1
1276,-8,-5,0,5,23,8,-21,1
1277,-20,0,-2,0,-9,-31,27,-2
1278,-20,0,-2,0,-9,-31,27,-2
1279,28,4,7,3,-8,18,3,6
1280,28,4,7,3,-8,18,3,6
1281,-19,-2,-5,-3,-2,-26,-18,-7
1282,30,-3,1,4,-3,-1,35,4
1283,30,-3,1,4,-3,-1,35,4
1284,30,-3,1,4,-3,-1,35,4
1285,-18,-4,-6,-5,1,-7,10,1
1286,-13,6,-2,1,-11,-4,0,1
1287,22,-12,-2,3,8,10,-27,-6
1288,23,0,4,-3,-1,-59,-1,0
1289,23,0,4,-3,-1,-59,-1,0
1290,-11,-4,-4,1,9,23,-13,-6
1291,-11,-4,-4,1,9,23,-13,-6
1292,-11,-4,-4,1,9,23,-13,-6
1293,-11,-4,-4,1,9,23,-13,-6
1294,1,8,3,-8,-15,45,11,-2
1295,1,8,3,-8,-15,45,11,-2
1296,-56,11,4,4,-3,-25,-32,-4
1297,-56,11,4,4,-3,-25,-32,-4
1298,-9,-12,-4,-5,-34,-31,-33,4
1299,-9,-12,-4,-5,-34,-31,-33,4
1300,-9,-12,-4,-5,-34,-31,-33,4
1301,11,6,-1,-5,-7,29,-26,-5
1302,25,-3,-1,6,13,12,-12,1
1303,25,-3,-1,6,13,12,-12,1
1304,25,-3,-1,6,13,12,-12,1
1305,13,17,2,8,-4,24,17,-2
1306,-21,1,1,1,6,36,-23,-1
1307,-21,1,1,1,6,36,-23,-1
1308,17,-6,-2,0,6,9,18,3
1309,17,-6,-2,0,6,9,18,3
1310,17,-6,-2,0,6,9,18,3
1311,-5,-8,-4,1,4,2,-3,-1
1312,-5,-8,-4,1,4,2,-3,-1
1313,-5,-8,-4,1,4,2,-3,-1
1314,-5,-8,-4,1,4,2,-3,-1
1315,37,3,0,-3,2,5,-2,7
1316,23,0,2,1,-11,-21,-45,1
1317,23,0,2,1,-11,-21,-45,1
1318,23,0,2,1,-11,-21,-45,1
1319,-2,-3,-4,-10,1,-7,-20,-2
1320,-5,-5,-3,-6,-26,5,11,-1
1321,25,-6,-3,-4,27,4,-8,5
1322,-12,-12,-4,-2,-6,-8,-5,1
1323,-12,-12,-4,-2,-6,-8,-5,1
1324,-12,-12,-4,-2,-6,-8,-5,1
1325,8,8,3,5,28,13,-3,-7
1326,-30,8,-1,3,-21,-22,9,-7
1327,-30,8,-1,3,-21,-22,9,-7
1328,-30,8,-1,3,-21,-22,9,-7
1329,-14,-2,0,-4,-14,-31,12,2
1330,6,7,-4,-6,11,5,-11,-5
1331,6,7,-4,-6,11,5,-11,-5
1332,-10,20,-3,0,-29,-8,34,3
1333,5,-9,-1,3,35,2,-31,-2
1334,5,-9,-1,3,35,2,-31,-2
1335,5,-9,-1,3,35,2,-31,-2
1336,6,2,-3,4,14,26,20,6
1337,6,2,-3,4,14,26,20,6
1338,6,2,-3,4,14,26,20,6
1339,6,2,-3,4,14,26,20,6
1340,3,6,1,4,35,13,20,-2
1341,3,6,1,4,35,13,20,-2
1342,-33,-20,-9,1,12,-8,6,-5
1343,-33,-20,-9,1,12,-8,6,-5
1344,-3,2,4,-1,4,14,-8,5
1345,-3,2,4,-1,4,14,-8,5
1346,-3,2,4,-1,4,14,-8,5
1347,-9,-12,-5,3,6,-80,-10,-3
1348,-9,-12,-5,3,6,-80,-10,-3
1349,-12,13,1,-1,-4,-4,-19,-1
1350,-1,5,3,-2,-17,5,36,3
1351,-1,5,3,-2,-17,5,36,3
1352,-21,4,0,-6,-7,-65,-23,-8
1353,-21,4,0,-6,-7,-65,-23,-8
1354,-12,-18,-6,1,30,33,25,-10
1355,-12,-18,-6,1,30,33,25,-10
1356,-1,9,7,-1,0,25,17,11
1357,24,-6,-5,-11,-18,-1,-3,4
1358,24,-6,-5,-11,-18,-1,-3,4
1359,24,-6,-5,-11,-18,-1,-3,4
1360,24,-6,-5,-11,-18,-1,-3,4
1361,-4,-8,-2,0,-11,-8,-13,0
1362,-4,-8,-2,0,-11,-8,-13,0
1363,48,1,3,6,8,1,23,7
1364,-12,2,2,-12,-76,-53,-48,-1
1365,-12,2,2,-12,-76,-53,-48,-1
1366,-12,2,2,-12,-76,-53,-48,-1
1367,10,-2,-4,-6,10,17,1,9
1368,9,-1,1,1,-3,15,-12,-2
1369,9,-1,1,1,-3,15,-12,-2
1370,9,-1,1,1,-3,15,-12,-2
1371,-15,-8,-1,7,9,-51,-10,-5
1372,19,15,2,-11,2,3,25,2
1373,19,15,2,-11,2,3,25,2
1374,-47,20,1,1,-6,36,-3,-13
1375,-43,-16,-3,0,7,-79,-31,-5
1376,-43,-16,-3,0,7,-79,-31,-5
1377,-43,-16,-3,0,7,-79,-31,-5
1378,-6,3,1,3,1,30,1,-3
1379,-6,3,1,3,1,30,1,-3
1380,-6,3,1,3,1,30,1,-3
1381,-4,2,1,3,-32,-30,-3,-4
1382,24,9,-2,3,35,13,30,6
1383,24,9,-2,3,35,13,30,6
1384,5,6,2,1,26,24,11,-2
1385,12,1,-3,2,-8,1,-13,-1
1386,12,1,-3,2,-8,1,-13,-1
1387,12,1,-3,2,-8,1,-13,-1
1388,12,1,-3,2,-8,1,-13,-1
1389,-13,0,1,-5,29,24,36,3
1390,-13,0,1,-5,29,24,36,3
1391,-13,0,1,-5,29,24,36,3
1392,-1,-2,-5,-3,5,15,-2,-6
1393,-1,-2,-5,-3,5,15,-2,-6
1394,-16,-10,2,-3,3,10,-15,-7
1395,-16,-10,2,-3,3,10,-15,-7
1396,-20,-1,2,4,-10,-15,21,-2
1397,-20,-1,2,4,-10,-15,21,-2
1398,-4,-14,-5,-1,29,-18,6,2
1399,-20,10,0,-4,-26,31,-20,-6
1400,-20,10,0,-4,-26,31,-20,-6
1401,-22,20,-4,-7,-40,-23,-8,-4
1402,26,9,2,6,9,-8,-22,2
1403,26,9,2,6,9,-8,-22,2
1404,3,-3,-1,-4,-28,12,5,-2
1405,1,-2,-2,-3,-10,-9,-5,-6
1406,1,-2,-2,-3,-10,-9,-5,-6
1407,1,-2,-2,-3,-10,-9,-5,-6
1408,8,6,3,2,7,8,14,3
1409,8,6,3,2,7,8,14,3
1410,8,6,3,2,7,8,14,3
1411,3,-8,0,4,17,21,-6,-4
1412,-15,-9,-1,11,11,28,7,2
1413,-15,-9,-1,11,11,28,7,2
1414,-43,30,7,-1,5,37,27,-6
1415,-16,-2,-2,1,25,-16,-2,-6
1416,-16,-2,-2,1,25,-16,-2,-6
1417,-16,-2,-2,1,25,-16,-2,-6
1418,-2,-9,-1,2,12,14,10,-1
1419,-2,-9,-1,2,12,14,10,-1
1420,-2,-9,-1,2,12,14,10,-1
1421,-30,36,4,0,-22,-8,-6,-2
1422,-30,36,4,0,-22,-8,-6,-2
1423,-5,-16,-10,1,27,6,-23,-8
1424,-5,-16,-10,1,27,6,-23,-8
1425,14,-15,-5,-6,-11,-15,-60,7
1426,14,-15,-5,-6,-11,-15,-60,7
1427,7,-13,-4,-17,-52,1,26,3
1428,7,-13,-4,-17,-52,1,26,3
1429,7,-13,-4,-17,-52,1,26,3
1430,7,-13,-4,-17,-52,1,26,3
1431,4,7,3,-2,-4,-4,4,-5
1432,4,7,3,-2,-4,-4,4,-5
1433,3,-9,-1,-1,-1,-42,-10,-3
1434,3,-9,-1,-1,-1,-42,-10,-3
1435,8,-13,-3,2,8,-14,3,-1
1436,8,-13,-3,2,8,-14,3,-1
1437,8,-13,-3,2,8,-14,3,-1
1438,-26,-3,2,-3,-4,15,14,-7
1439,-26,-3,2,-3,-4,15,14,-7
1440,-26,-3,2,-3,-4,15,14,-7
1441,-26,-3,2,-3,-4,15,14,-7
1442,41,-15,-1,5,3,8,8,5
1443,41,-15,-1,5,3,8,8,5
1444,41,-15,-1,5,3,8,8,5
1445,41,-15,-1,5,3,8,8,5
1446,13,-6,-7,-2,-2,1,21,-7
1447,13,-6,-7,-2,-2,1,21,-7
1448,13,-6,-7,-2,-2,1,21,-7
1449,6,17,6,2,6,-1,-18,1
1450,6,17,6,2,6,-1,-18,1
1451,6,17,6,2,6,-1,-18,1
1452,5,-4,-4,0,1,21,20,-3
1453,5,-4,-4,0,1,21,20,-3
1454,5,-4,-4,0,1,21,20,-3
1455,5,-4,-4,0,1,21,20,-3
1456,-16,-20,-5,0,0,9,-29,1
1457,-16,-20,-5,0,0,9,-29,1
1458,-16,-20,-5,0,0,9,-29,1
1459,-38,-4,-1,-5,-3,5,-9,-3
1460,-38,-4,-1,-5,-3,5,-9,-3
1461,-38,-4,-1,-5,-3,5,-9,-3
1462,7,4,0,2,27,3,16,-4
1463,7,4,0,2,27,3,16,-4
1464,7,4,0,2,27,3,16,-4
1465,-35,0,3,7,12,16,11,-2
1466,-6,12,2,-14,6,0,20,4
1467,-6,12,2,-14,6,0,20,4
1468,-16,-19,-3,4,-3,8,-16,-4
1469,-16,-19,-3,4,-3,8,-16,-4
1470,-16,-19,-3,4,-3,8,-16,-4
1471,-16,-19,-3,4,-3,8,-16,-4
1472,41,7,-3,-7,-37,37,15,-2
1473,41,7,-3,-7,-37,37,15,-2
1474,41,7,-3,-7,-37,37,15,-2
1475,41,7,-3,-7,-37,37,15,-2
1476,10,-14,-3,-1,3,-3,-11,-3
1477,1,6,1,1,-15,-37,13,-2
1478,1,6,1,1,-15,-37,13,-2
1479,13,4,3,3,12,2,-7,6
1480,13,4,3,3,12,2,-7,6
1481,13,4,3,3,12,2,-7,6
1482,13,4,3,3,12,2,-7,6
1483,-36,-3,0,5,22,44,-10,3
1484,-36,-3,0,5,22,44,-10,3
1485,-36,-3,0,5,22,44,-10,3
1486,-36,-3,0,5,22,44,-10,3
1487,-7,-26,-6,5,10,20,-11,2
1488,-7,-26,-6,5,10,20,-11,2
1489,-7,-26,-6,5,10,20,-11,2
1490,-9,3,-1,5,8,-84,-1,-1
1491,-9,3,-1,5,8,-84,-1,-1
1492,-9,3,-1,5,8,-84,-1,-1
1493,-9,3,-1,5,8,-84,-1,-1
1494,-10,1,-1,-6,1,7,-18,-2
1495,-10,1,-1,-6,1,7,-18,-2
1496,-10,1,-1,-6,1,7,-18,-2
1497,-10,1,-1,-6,1,7,-18,-2
1498,38,41,10,2,-1,11,12,2
1499,38,41,10,2,-1,11,12,2
1500,38,41,10,2,-1,11,12,2
1501,-34,-4,-1,-6,-25,-35,-6,0
1502,-34,-4,-1,-6,-25,-35,-6,0
1503,-34,-4,-1,-6,-25,-35,-6,0
1504,-34,-4,-1,-6,-25,-35,-6,0
1505,15,3,1,1,-5,2,-11,-2
1506,15,3,1,1,-5,2,-11,-2
1507,15,3,1,1,-5,2,-11,-2
1508,15,3,1,1,-5,2,-11,-2
1509,-12,-16,-6,-15,-24,36,35,-13
1510,-12,-16,-6,-15,-24,36,35,-13
1511,-8,-10,-2,6,14,-5,10,-2
1512,-8,-10,-2,6,14,-5,10,-2
1513,-8,-10,-2,6,14,-5,10,-2
1514,-8,-10,-2,6,14,-5,10,-2
1515,9,-6,-2,1,-3,3,-3,-6
1516,9,-6,-2,1,-3,3,-3,-6
1517,9,-6,-2,1,-3,3,-3,-6
1518,9,-6,-2,1,-3,3,-3,-6
1519,7,4,-3,-3,-17,-77,-11,4
1520,7,4,-3,-3,-17,-77,-11,4
1521,-2,-4,-1,-2,22,45,-36,-3
1522,8,6,5,1,-2,-22,-23,1
1523,-24,-24,-2,-1,1,41,25,-3
1524,-24,-24,-2,-1,1,41,25,-3
1525,-24,-24,-2,-1,1,41,25,-3
1526,13,-9,-2,8,9,21,25,0
1527,13,-9,-2,8,9,21,25,0
1528,3,9,-5,-7,1,-72,-36,0
1529,3,9,-5,-7,1,-72,-36,0
1530,3,9,-5,-7,1,-72,-36,0
1531,3,9,-5,-7,1,-72,-36,0
1532,-2,10,0,-6,12,17,18,3
1533,-2,10,0,-6,12,17,18,3
1534,-2,10,0,-6,12,17,18,3
1535,-2,10,0,-6,12,17,18,3
1536,9,25,3,-7,-2,-20,-16,2
1537,9,25,3,-7,-2,-20,-16,2
1538,9,25,3,-7,-2,-20,-16,2
1539,9,25,3,-7,-2,-20,-16,2
1540,-9,-12,-1,0,-2,17,-49,1
1541,-9,-12,-1,0,-2,17,-49,1
1542,10,2,3,6,-23,37,8,4
1543,10,2,3,6,-23,37,8,4
1544,10,2,3,6,-23,37,8,4
1545,10,2,3,6,-23,37,8,4
1546,5,-9,-3,2,1,31,5,1
1547,-22,-10,-2,2,4,21,-15,-7
1548,-22,-10,-2,2,4,21,-15,-7
1549,-22,-10,-2,2,4,21,-15,-7
1550,-2,-6,-1,4,-13,-17,9,-2
1551,-2,-6,-1,4,-13,-17,9,-2
1552,-2,-6,-1,4,-13,-17,9,-2
1553,-23,8,-6,0,-4,35,29,-7
1554,-23,8,-6,0,-4,35,29,-7
1555,-23,8,-6,0,-4,35,29,-7
1556,-23,8,-6,0,-4,35,29,-7
1557,5,-11,-2,1,0,-36,-45,-3
1558,5,-11,-2,1,0,-36,-45,-3
1559,44,2,1,-9,-26,-20,-24,3
1560,44,2,1,-9,-26,-20,-24,3
1561,9,5,-1,-10,-22,-5,37,11
1562,9,5,-1,-10,-22,-5,37,11
1563,-5,-9,-2,4,6,9,-34,-6
1564,-5,-9,-2,4,6,9,-34,-6
1565,-5,-9,-2,4,6,9,-34,-6
1566,-5,-9,-2,4,6,9,-34,-6
1567,5,19,4,11,14,-16,6,-1
1568,5,19,4,11,14,-16,6,-1
1569,1,-4,2,1,-2,-59,-10,-2
1570,1,-4,2,1,-2,-59,-10,-2
1571,-20,-3,1,-3,-27,-12,-19,-1
1572,-20,-3,1,-3,-27,-12,-19,-1
1573,18,-3,-4,8,15,28,10,3
1574,18,-3,-4,8,15,28,10,3
1575,18,-3,-4,8,15,28,10,3
1576,18,-3,-4,8,15,28,10,3
1577,18,-3,-4,8,15,28,10,3
1578,18,-3,-4,8,15,28,10,3
1579,8,2,-2,-8,-3,5,-3,-7
1580,9,-15,-4,-3,-24,1,41,6
1581,0,-11,-6,-13,-14,-60,38,2
1582,0,-11,-6,-13,-14,-60,38,2
1583,0,-11,-6,-13,-14,-60,38,2
1584,19,10,-4,-9,-20,-42,-18,3
1585,19,10,-4,-9,-20,-42,-18,3
1586,19,10,-4,-9,-20,-42,-18,3
1587,19,10,-4,-9,-20,-42,-18,3
1588,-14,10,2,4,1,-12,-11,-11
1589,-14,10,2,4,1,-12,-11,-11
1590,-14,10,2,4,1,-12,-11,-11
1591,-25,-15,-5,-2,7,19,-22,-23
1592,11,1,-1,-3,-20,49,-10,-3
1593,11,1,-1,-3,-20,49,-10,-3
1594,11,1,-1,-3,-20,49,-10,-3
1595,-39,-2,2,-7,-3,-61,-12,-3
1596,-39,-2,2,-7,-3,-61,-12,-3
1597,-39,-2,2,-7,-3,-61,-12,-3
1598,-39,-2,2,-7,-3,-61,-12,-3
1599,20,-7,-2,5,15,63,-11,7
1600,20,-7,-2,5,15,63,-11,7
1601,-8,6,-1,2,9,-19,-13,-10
1602,3,19,3,0,-21,31,35,-8
1603,3,19,3,0,-21,31,35,-8
1604,3,19,3,0,-21,31,35,-8
1605,15,0,1,4,12,3,-24,-4
