time,emg1,emg2,emg3,emg4,emg5,emg6,emg7,emg8
0,24.33515975,14.51895313,1.095445115,11.340194,15.40779024,17.94993036,17.96663575,25.58124313
1,10.75174404,1.264911064,0.774596669,6.899275324,56.83132939,24.20330556,36.12478374,3
2,9.889388252,4.69041576,0.632455532,2.48997992,7.874007874,18.62793601,10.09950494,7.362064928
3,2.645751311,4.91934955,0.632455532,0.447213595,6.418722614,3.687817783,8,1.673320053
4,11.62755348,3.820994635,0,1.673320053,4.774934555,17.94435844,13.84196518,9.19782583
5,8.111719916,3.768288736,1,5.059644256,15.60769041,6.418722614,14.51895313,8
6,25,3.768288736,0.447213595,4.959838707,5.253570215,12.11610498,13.44618905,1.095445115
7,4.472135955,4.582575695,3.633180425,4.219004622,18.4986486,17.96663575,11.43678276,1.897366596
8,15.65247584,13.8491877,3,8.660254038,8.294576541,4.472135955,18.81488772,3.741657387
9,24.86764967,4.242640687,3,16.40121947,11.09954954,24.43358345,15.86190405,11.74734012
10,3.847076812,0,0.632455532,3.224903099,4.123105626,29.42787794,20.60582442,3.376388603
11,12.07476708,0.894427191,2.645751311,0.632455532,36.12478374,21.03330692,2.449489743,4
12,2.792848009,1.095445115,1.095445115,1.095445115,11.62755348,24.71436829,26.29068276,3.033150178
13,1.414213562,8.843076388,1.264911064,0,13.31915913,22.054478,6.6633325,3.974921383
14,3.768288736,3.521363372,3.633180425,2.144761059,7.014271167,34.89412558,21.10450189,6.418722614
15,26.00769117,7.211102551,3,4.358898944,21.40560674,19.97998999,16,7.26636085
16,11.296017,5.495452666,1.673320053,0.774596669,4.358898944,20.90454496,34.79080338,5.813776741
17,9.022194855,10.12916581,1.095445115,25.69435736,4.024922359,14.32480366,30.35127674,4.242640687
18,9.486832981,5.347896783,1.732050808,7.615773106,2.323790008,6.782329983,41.70131892,2.898275349
19,9.777525249,3.633180425,4,14.02854233,12.46595363,5.347896783,15.87450787,0.632455532
20,9.869143833,5.899152482,3.286335345,7.784600182,10.0895986,3.224903099,29.72541001,0.774596669
21,2.720294102,3.376388603,1.341640786,12.07476708,13.87083271,10.05982107,12.92284798,2.323790008
22,9.989994995,5.621387729,2.19089023,13.62350909,7,35.21931288,21.55458188,2.645751311
23,34.72751071,15.48547707,4.266145802,10.60188662,5.329165038,44.21312022,17.84936974,2.898275349
24,26.76564963,9.518403227,2.683281573,4.195235393,5.848076607,21.40560674,7.668115805,3.405877273
25,15.56920036,9.230384607,3.033150178,22.23510738,49.75138189,14.78512766,13.28909327,3.633180425
26,7.375635566,9.412757301,4.049691346,33.64817974,50.02399424,16.91153453,40.48950481,2.898275349
27,1.414213562,10.34408043,1.673320053,6.244997998,9.97997996,12.95376393,35.9110011,3
28,8.966604709,9.92975327,3.130495168,12.29634092,5.639148872,41.70851232,43.02092514,3.286335345
29,12.8996124,8.876936408,3.224903099,9.38083152,16.60120478,21.91346618,17.73696705,2.607680962
30,20.48902145,6.066300355,1,2.645751311,14.80540442,7.83581521,23.57541092,3.405877273
31,17.05872211,11.78982612,1,3.16227766,7.113367698,3.847076812,32.64046568,2.144761059
32,14.03566885,5.495452666,3,1.897366596,1.949358869,8.426149773,70.22677552,10.61131472
33,4.049691346,1.897366596,0.632455532,8.35463943,24.42949038,16.38291793,10.38267788,0.632455532
34,9.726253133,2.28035085,1,9.486832981,17.74260409,12.95376393,6.526867549,1.095445115
35,10.35374328,5.830951895,1.183215957,4.123105626,20.01999001,14.60821687,3.974921383,2
36,10.31503757,8.797726979,3,6.708203932,3.405877273,6.212889827,22.58760722,0.632455532
37,14.33875866,2.28035085,2.645751311,3.898717738,4.449719092,4.647580015,29.31893586,1.095445115
38,11.28716085,4.91934955,0,0.632455532,26.64582519,3.31662479,44.9310583,2.449489743
39,18.01110768,11.340194,0.774596669,16.78094157,18.67083287,23.05645246,11.88276062,3.872983346
40,41.43187179,2.449489743,2.607680962,27.49181696,16.16786937,13.70401401,4,2
41,25.10378458,13.29661611,1.673320053,6,10.43072385,5.796550698,27.66224864,1.341640786
42,12,7.483314774,3.130495168,12.75931033,4.147288271,7.496665926,15.91225942,0
43,16.40121947,8.648699324,2.449489743,11.35781669,7.169379332,14.89966443,27.59347749,2.607680962
44,14.21970464,0.447213595,1.264911064,0.774596669,1,12.6964562,24.33515975,6.066300355
45,3.794733192,3.033150178,2.19089023,3.346640106,3.949683532,32.8390012,20.71231518,2.19089023
46,13.28909327,5.621387729,2,4.91934955,0.447213595,10.9270307,4.123105626,5.422176685
47,39.26066734,3.872983346,2,12.12435565,10.12916581,6.767569726,11.22497216,4.91934955
48,11.61895004,7.64198927,1.095445115,0,5.291502622,12.9614814,7.668115805,1.843908891
49,22.60088494,5.440588203,2.19089023,3.033150178,22.60088494,28.04995544,4.857983121,4.857983121
50,4.358898944,3.768288736,1.341640786,1.341640786,4.049691346,36.8998645,10.9270307,0.447213595
51,23.17326045,3.405877273,1,3,14.95994652,31.60379724,19.06305327,3.633180425
52,27.77408864,2.683281573,0,4.711687596,3,44.91102315,13.93556601,1.095445115
53,25.33771892,7.615773106,0.774596669,1.673320053,5.585696018,28.44292531,34.1994152,4
54,11.23387734,12.22292927,1,1.341640786,9.088454214,25.08385935,10.77961038,0.447213595
55,20.10472581,5.916079783,2,3.130495168,8.921883209,5,20.04993766,0
56,21.50813799,4.939635614,1.341640786,1.673320053,3.687817783,6.14817046,9.622889379,0.632455532
57,7.141428429,22.82980508,4.626013402,3.31662479,31.84022613,8.23407554,8.602325267,0
58,3.376388603,12.04989627,2,2.449489743,1.341640786,10.38267788,19.68755952,0
59,20,4.837354649,0.447213595,5.458937626,20.41568025,12.80624847,4.098780306,4.242640687
60,32.55149766,8.865664104,1.095445115,4.123105626,11.54989177,13.28156617,22.50333309,1.673320053
61,15.2446712,4.91934955,1.414213562,1.095445115,13.47590442,2,11.48041811,0
62,25.35744467,10.34408043,1.095445115,1.673320053,4.604345773,34.7764288,17.69745744,4.358898944
63,24.66981962,16.00624878,0,6.752777206,30.19933774,26.62329807,25.69435736,3
64,16.9292646,5.621387729,1.949358869,1.095445115,5.709640969,22.89978166,23.71497417,3.820994635
65,8.318653737,2.19089023,3.435112807,3.286335345,0.774596669,25.06391829,4.358898944,0.774596669
66,5.253570215,3.974921383,2,1.341640786,5.310367219,19.16246331,19.12589867,3.31662479
67,7.141428429,4.358898944,1.095445115,9.022194855,14.97998665,19.9047733,15.29705854,0.632455532
68,8.099382693,7.720103626,1.095445115,1.949358869,5.039841267,34.86545568,18.72965563,0.632455532
69,8.173126697,5.621387729,0,1.673320053,3.31662479,6.292853089,5.93295879,1.897366596
70,17.15225933,4.266145802,2.792848009,7.127411872,3.872983346,3.768288736,23.41367122,3.130495168
71,17,4.098780306,1.341640786,3.633180425,1,10.01998004,15.53705249,3.741657387
72,1.673320053,3.820994635,0.774596669,2.898275349,1.673320053,4.774934555,11.5931014,0.632455532
73,12.95376393,2.569046516,0.447213595,5.07937004,17.33205123,16.31563667,38.72466914,2
74,19.09450183,10.79814799,0.447213595,14.18449858,11.85748709,17.49857137,17.46997424,7.071067812
75,5.621387729,7.886697661,1.673320053,8.173126697,8.544003745,9.186947262,4.75394573,7
76,30.2654919,20.60582442,2,3,9.549869109,3.405877273,17.94993036,7
77,9.838699101,5.709640969,0,1.095445115,19.02104098,7.042726745,31.88416535,3.872983346
78,16.40121947,15.41427909,0.632455532,11,8.124038405,27.9177363,6.228964601,1.673320053
79,9.033271833,9.230384607,3,4.626013402,4.582575695,17.90530648,27.38247615,2.323790008
80,24.60487757,4.582575695,0,3.033150178,0.632455532,2.449489743,21.99090721,2.19089023
81,6.308724118,2,2.144761059,1,12.17374223,14.25482374,16.69131511,2.569046516
82,12.03328717,2.449489743,0,3.768288736,11.26055061,6.066300355,3.768288736,1.341640786
83,2.449489743,6.244997998,1.341640786,2.607680962,7.375635566,25.05593742,28.47806173,0.774596669
84,6.418722614,27.25068806,4,6,25.15949125,8,11.74734012,2.323790008
85,6.115553941,12.19836055,1.483239697,4.604345773,13.978555,10.65833008,24.59268184,1
86,9.787747443,7.141428429,0.632455532,1.095445115,6.356099433,15.09304476,11.83215957,6.8556546
87,7.615773106,7.293833012,1.264911064,2.449489743,1.61245155,4.123105626,13.64551208,2.683281573
88,4.647580015,16.81665841,6.244997998,5.253570215,2.144761059,45.78646088,15.13935269,0
89,8.671793355,2.236067977,1.673320053,0.447213595,6.164414003,14.90637448,9.674709298,5.329165038
90,12.22292927,4.098780306,2.323790008,1.414213562,12.489996,8.637129153,5.291502622,1
91,8.94427191,1.61245155,0.774596669,1.095445115,4.538722287,21.58703314,14.31083506,1.095445115
92,9.305912099,0.632455532,0.774596669,0.632455532,4.69041576,17.10555465,10.0697567,2.449489743
93,10.38267788,6.033241252,1.095445115,1.673320053,10.45944549,27.04440792,11.79830496,2.645751311
94,7.252585746,8.049844719,2,0.632455532,17.48141871,3.31662479,14.21970464,0.632455532
95,23.29377599,4.098780306,3.286335345,2.236067977,1.095445115,2.408318916,6.276941931,0
96,7.602631123,12.31259518,2,5.196152423,6.418722614,8.648699324,7.615773106,0
97,5.253570215,1.414213562,0,3.633180425,6.449806199,8.876936408,14.87279395,1.673320053
98,8.087026648,6.164414003,0.632455532,1.897366596,6.292853089,6.841052551,13.25895924,0
99,2,5.882176468,1,0.447213595,13,9.455157323,25.68267899,0.447213595
100,16.47422229,2.645751311,2,2.720294102,2.19089023,14.12090649,9.110433579,4
101,9.818350167,5.422176685,0.632455532,2.323790008,2,9.110433579,7.238784428,3.130495168
102,21.94994305,4.69041576,2.408318916,3.130495168,22.95212408,64.75028957,58.34038053,5.796550698
103,8.602325267,1.61245155,0,3.633180425,12.40967365,10.0895986,8.660254038,1
104,9.507891459,3.687817783,0.632455532,1.095445115,4.69041576,22.53441812,20.76535576,0.447213595
105,2.569046516,5.495452666,0,0.774596669,27.8460051,27.18823275,34.30451865,3
106,6.356099433,1.264911064,3.820994635,3.633180425,4,14.07124728,4.5607017,1.341640786
107,26.94438717,3.346640106,1.264911064,3.31662479,7.362064928,15.67801008,10.0895986,2.828427125
108,7.141428429,12.07476708,5.07937004,3.224903099,20.01999001,18.69224438,8.876936408,3.633180425
109,25.73324698,2.408318916,0,4.626013402,18.37389452,17.04699387,1,1
110,10.03992032,6.737952211,3.872983346,4.427188724,3.065941943,18.84144368,1.949358869,0
111,12.03328717,10.63014581,3.31662479,3.130495168,11.84905059,14.06413879,14.14920492,2
112,4.939635614,7.362064928,1.483239697,0.447213595,9.539392014,5.440588203,6.633249581,0
113,19.33390804,15.69076161,1.673320053,5.495452666,7.26636085,13.89244399,2.898275349,3
114,18.36300629,5.253570215,0,2.408318916,6.308724118,6.164414003,15.37530488,4.516635916
115,10.09950494,9.044335244,1.264911064,0,5.422176685,19.03155275,9.848857802,3
116,6.356099433,6.6633325,2.236067977,3.31662479,7.733045972,3.464101615,15.88080602,1.673320053
117,4.049691346,3.577708764,1.897366596,1.673320053,1.897366596,10.54514106,10.47854952,4.626013402
118,13.60882067,1.897366596,0.894427191,4.098780306,4.098780306,7.57627877,10.63014581,0
119,12.60952021,1.414213562,0,2,3.346640106,5.899152482,10.82589488,0.894427191
120,41.15823125,7.64198927,2,4.837354649,2.236067977,11.91637529,23.61355543,1.673320053
121,15.47901806,0.894427191,2.645751311,3.872983346,17.49857137,18.92088793,17.02351315,1.095445115
122,25.71769819,8.590692638,1,2.449489743,10.84435337,3.376388603,4.098780306,3.286335345
123,9.838699101,9.8285299,0,0.632455532,1.095445115,12.50599856,3.033150178,2
124,0.894427191,1.673320053,2,3.820994635,12.7514705,15.25122946,9.726253133,1
125,4.774934555,3,0.632455532,1.095445115,10.22741414,6.752777206,16.63730747,0.447213595
126,6.308724118,13.42385936,1.483239697,1.095445115,25.56169008,42.14736053,17.52712184,0
127,11.20714058,4.123105626,2.323790008,1.673320053,11.18928058,13.44618905,18.01110768,3.768288736
128,6.099180273,8.438009244,0.774596669,5.848076607,6.767569726,15.25122946,10.05982107,3.521363372
129,13.49073756,4.626013402,1.095445115,1.264911064,3.193743885,8.602325267,9.497368056,1
130,18.80425484,4.711687596,1.843908891,3.820994635,0.632455532,16.16168308,10.86278049,4
131,14.71054044,7.483314774,0,0.774596669,8.579044236,10.48808848,19.29766825,8.099382693
132,12.85301521,10.80740487,4,10.86278049,14.84587485,9.37016542,12.60952021,1.483239697
133,15.42076522,7.823042886,1.341640786,3.872983346,10.99090533,10.94531863,12.55388386,5.899152482
134,6.115553941,4.774934555,2,2.720294102,8.099382693,14.51895313,17.10555465,1.414213562
135,28,5.709640969,0,6.899275324,6.737952211,35.02855978,13.07669683,4.242640687
136,10.0697567,4.049691346,0.632455532,0,4.024922359,15.6140962,23.8285543,4
137,22.18107301,5.813776741,1.673320053,1.673320053,3.033150178,13.79855065,6.308724118,1.673320053
138,10.10940156,4.604345773,0.632455532,1.949358869,5.477225575,16.50454483,17,7.886697661
139,23.37520053,0.632455532,0,2.449489743,12.62537128,15.70350279,28.40422504,4.098780306
140,17,4,1,4,10,11,5,5
141,3.193743885,8.35463943,1.095445115,0.632455532,3.286335345,33.32866634,2.683281573,1.095445115
142,15.60769041,15.84297952,0.632455532,0.632455532,16,3.714835124,5,1
143,12.34503949,4.024922359,2.323790008,2.645751311,10.39230485,12.03328717,5.099019514,1.949358869
144,6.841052551,1.788854382,0,1.673320053,10.56409012,28.2382719,4.5607017,1
145,7.362064928,4.516635916,3,6.164414003,13.0537351,9.869143833,3.974921383,3.974921383
146,18.43908891,2.144761059,3.974921383,0.774596669,12.07476708,22.73323558,30.71807286,2
147,6.985699679,1.673320053,3.31662479,3.130495168,3,5.744562647,5.709640969,2
148,9.208691547,3.224903099,1.843908891,4,1,54.5802162,4.358898944,3
149,5.196152423,9.110433579,1,0.447213595,9.444575162,5.477225575,2.28035085,1.673320053
150,9.8285299,2.645751311,0,2,25.49117494,55.0127258,3.768288736,0.894427191
151,3.346640106,3.872983346,0,0.632455532,9.736529156,26.09980843,3.224903099,0
152,2.236067977,3.065941943,0.632455532,2.408318916,19,21.99090721,7.797435476,3.130495168
153,17.48141871,4.098780306,3.633180425,5.196152423,7.141428429,14,2.683281573,1.341640786
154,1.341640786,3.193743885,0.447213595,2.28035085,7.362064928,10.22741414,9.412757301,6.633249581
155,7.141428429,3.435112807,1.414213562,5.196152423,3.768288736,4.604345773,10.16857906,0
156,2.28035085,3.224903099,0.894427191,1.788854382,4.69041576,2.236067977,5.477225575,0
157,1.897366596,3.768288736,0.894427191,1.843908891,15,33.66303611,9.838699101,3.286335345
158,30.03664429,1.673320053,0,2.408318916,12.21474519,39.36241862,9.818350167,1.673320053
159,11.03630373,3.54964787,0,2,9.5289034,30,37.51799568,1.897366596
160,24.27756166,7.64198927,2.323790008,0.774596669,4.979959839,16.79880948,11.5931014,0
161,4.427188724,2,0,1.732050808,15.77973384,25.10378458,6.618156843,3
162,3.286335345,9.338094024,0.447213595,2.408318916,8.797726979,27.3642102,6.14817046,1.673320053
163,6.6633325,8,3,2.323790008,9.110433579,14.71733672,21.07605276,0.447213595
164,18.37389452,1.414213562,1.897366596,1,4.91934955,5.779273311,28.06777512,1.095445115
165,7.874007874,9.273618495,3.435112807,4.626013402,20.02997753,37.38983819,7.987490219,2.236067977
166,1.414213562,3.54964787,0.632455532,0.632455532,1.732050808,35.10555512,23.43501654,0
167,5.813776741,11.43678276,2.144761059,1,2.828427125,12.00833044,4.404543109,1
168,9,1.341640786,0,1.673320053,9.186947262,2.236067977,5.621387729,1.095445115
169,1.732050808,15.01998668,1,2,1.483239697,8.613942187,15.32318505,3
170,26.88494002,9.612491873,3,1.341640786,9.110433579,71.78579247,10.0895986,2.792848009
171,5.329165038,1.483239697,2,0.447213595,10.61131472,17.05872211,19.1102067,0
172,9.455157323,7.238784428,4.098780306,3,2.408318916,10.79814799,2,3.130495168
173,7,3.872983346,3.224903099,2,2,14.03566885,5.196152423,2.236067977
174,13.46848173,5.099019514,3.130495168,1.673320053,5.949789912,7.348469228,3.31662479,1.414213562
175,3.31662479,2.236067977,0.774596669,2.828427125,7,8.809086218,13.19848476,4.939635614
176,12,8.414273587,3.435112807,4.358898944,3.435112807,7.83581521,20.42057786,1.341640786
177,5.477225575,6.633249581,1,3.376388603,6.066300355,52.44997617,18.25924423,5.196152423
178,6.066300355,1.61245155,0.774596669,0.447213595,5.07937004,15.07315495,13.95707706,1
179,8.567379996,4.69041576,1.414213562,1,8.318653737,4,10.55461984,2.449489743
180,2.569046516,6.066300355,0.894427191,1.897366596,12.73577638,11.26055061,10.12916581,1
181,4.404543109,4.75394573,1.673320053,3.286335345,4.669047012,33,16.87009188,3
182,3.065941943,4.898979486,0.447213595,1.095445115,2.683281573,6.870225615,4.123105626,1.095445115
183,19.9148186,16.66133248,1.341640786,0,23,54.68089246,1.673320053,4.123105626
184,9.176055798,2.323790008,0,2.449489743,10.72380529,9.581231654,3.193743885,2.449489743
185,8.809086218,9,2,0.632455532,6.066300355,14.25482374,9.19782583,2.19089023
186,1.788854382,2.144761059,2,0,1.341640786,4.795831523,13.51295675,2
187,5.458937626,6.164414003,2.720294102,3.741657387,10.76104084,14.30384564,8.270429251,2.144761059
188,9.581231654,4.472135955,1.483239697,0.632455532,5.830951895,8.602325267,4.147288271,0.447213595
189,12.8918579,4.91934955,5.422176685,5.813776741,9.612491873,13.96424004,8.074651695,0
190,13.45362405,8.282511696,3.974921383,2.792848009,1.673320053,20.52315765,2.408318916,2.645751311
191,12.22292927,1.732050808,1.483239697,1.095445115,6,27.15142722,6.244997998,3.193743885
192,13.66016105,1.341640786,1.183215957,2,1,14.33178286,9.316651759,0
193,6.633249581,5.196152423,1.095445115,1,12,17.88295278,14.43606595,0
194,2.645751311,1.673320053,0,3.033150178,3.898717738,21.13764414,6.496152708,0
195,19,7.615773106,0.632455532,1,12.22292927,4.538722287,9.797958971,1.949358869
196,6.678323143,7.293833012,0.632455532,5.796550698,4.358898944,6.033241252,23.34095114,0.774596669
197,25.80310059,4.266145802,2,1,20.09975124,20.36663939,24.44176753,0
198,3.768288736,1,0,0.894427191,8.062257748,7.085195834,8.136338243,1.843908891
199,1.673320053,7.83581521,1.414213562,2.569046516,13.60882067,8.602325267,7.443117626,0.774596669
200,11.85748709,1.949358869,1.341640786,1.341640786,15,10.26645021,28.66007676,4.939635614
201,0.632455532,4.69041576,1,0,1.673320053,12.95376393,5.440588203,1.183215957
202,3,9.497368056,0,2.323790008,1.732050808,20.174241,5.495452666,2.449489743
203,3.065941943,0,0,2.449489743,3.794733192,17.7087549,7.127411872,2.683281573
204,10,0.774596669,2.236067977,8.074651695,25.54212207,16.00624878,20.35190409,2.097617696
205,15.07315495,2.144761059,0.632455532,4.427188724,23.02607218,18.4282392,6.403124237,1.949358869
206,4.647580015,1.341640786,0.632455532,4.266145802,10.47854952,1.949358869,21.01903899,4.289522118
207,13.34915728,3.768288736,1.414213562,1.095445115,2.569046516,2.48997992,7.771743691,6.308724118
208,4.472135955,2.28035085,0,3,6.618156843,10.26645021,16.24192107,2.48997992
209,11.26055061,3.286335345,2.645751311,2.720294102,2.323790008,7.784600182,9.612491873,2.48997992
210,4.427188724,3.31662479,0.632455532,2.449489743,20.04993766,49.15892594,36.52670256,5.621387729
211,9.869143833,4.242640687,1.341640786,1.414213562,4.049691346,19.98499437,21.03806075,4
212,11.23387734,7.416198487,3.435112807,2,14.18449858,12.25561096,23.37947818,3.033150178
213,14.35270009,4,0.774596669,1.341640786,3.31662479,20.47437423,23.24650511,3.376388603
214,5.196152423,2.898275349,2.323790008,6.016643583,30.70830507,29.0757631,4.147288271,2.449489743
215,11.823705,4.816637832,0.774596669,3.633180425,31.70804314,6.899275324,18.69224438,3.31662479
216,6.723094526,3.033150178,3,2.28035085,8.062257748,17.11724277,5.253570215,1.341640786
217,15.53061493,0,0.447213595,1.61245155,1.095445115,14.94657151,4.69041576,1.341640786
218,2.28035085,4.358898944,1.673320053,2.28035085,5.656854249,19.72815247,6.340346994,1
219,15.69076161,7.211102551,0,0,2.792848009,6.228964601,29.08951701,1.949358869
220,6.212889827,6.899275324,1.673320053,2,0.632455532,9.044335244,5.813776741,3.872983346
221,26.78432377,4.049691346,1,0.447213595,5.916079783,11,7.056911506,1.949358869
222,11.66190379,4.91934955,1.095445115,0,4.242640687,18.04993075,3.687817783,4.098780306
223,11.26055061,3.974921383,0.894427191,5.215361924,25.77983708,6.723094526,13.19848476,3.768288736
224,2.323790008,2.828427125,1,1.483239697,3.376388603,7.57627877,5.366563146,1.414213562
225,13.03840481,3.31662479,1.673320053,0.632455532,11.83215957,14.47756886,5.813776741,1.673320053
226,1,1.483239697,2.449489743,0.632455532,4.098780306,11.48912529,33.74907406,0.774596669
227,6.737952211,5,1.673320053,3,8.414273587,29.31211354,4.604345773,4.494441011
228,4.242640687,0.632455532,1.673320053,4.816637832,22.82980508,55.48152846,23.93741841,7
229,4.774934555,5.440588203,0.632455532,5.196152423,6.737952211,18.22086716,31.1897419,1
230,14.09964539,5.916079783,4.626013402,4.626013402,13,41.91419807,36.06660505,4.626013402
231,24.29403219,6.841052551,1.673320053,9.305912099,12.33693641,12.03328717,17.83816134,5.196152423
232,35.52745417,20.69299398,0,4,8.282511696,11.09053651,15,0.894427191
233,15.39480432,6.308724118,2.408318916,3.435112807,6,18.56879102,7.987490219,1.483239697
234,4.358898944,9.869143833,1.673320053,0.632455532,10.12916581,20.68332662,4.516635916,5.916079783
235,1,3.768288736,0.632455532,0.632455532,1.949358869,16.18641406,10.09950494,0.632455532
236,1.732050808,6.033241252,0.774596669,4.242640687,1.732050808,47.11475353,13.28156617,0.774596669
237,12.22292927,2.48997992,2.792848009,2,3.130495168,14.14213562,1.732050808,0
238,5,6,1.897366596,3.768288736,12.55388386,34.61502564,14.89966443,0
239,3.130495168,4.098780306,3.224903099,0.774596669,13.94991039,20.20890893,8.797726979,2.19089023
240,12.32882801,1.949358869,0.447213595,1.483239697,4.098780306,11.5931014,21.45227261,4.242640687
241,8.888194417,3.224903099,3.872983346,2.645751311,6.14817046,17.51570724,4.242640687,0.447213595
242,23.8285543,8.613942187,1.095445115,0,9.359487165,19.48845812,5.310367219,2.683281573
243,14.40833092,7.09929574,0.632455532,4.939635614,14.51206395,24.14953416,27.25068806,1.732050808
244,22.04540769,4.049691346,2.449489743,2.408318916,1,29.04823575,19.05255888,1.673320053
245,12.86856635,4.358898944,1.843908891,2.323790008,2.449489743,8.44985207,5.138093031,0.774596669
246,10.84435337,3.714835124,0.894427191,0.632455532,3.065941943,33.82011236,5.440588203,1.341640786
247,12.75931033,5.019960159,0.774596669,1.673320053,7.694153625,5.848076607,23.8117618,2.645751311
248,4.024922359,5.329165038,0.447213595,2.449489743,1.673320053,12.56980509,19.13635284,3.286335345
249,6.212889827,3.065941943,1,1,0,2.323790008,24.17022962,0
250,18.23732437,3,0.632455532,0.632455532,8.209750301,26.61954169,15.14595656,2.898275349
251,5.157518783,2.828427125,0.447213595,0.632455532,5.761944116,7.085195834,4.898979486,2.898275349
252,4.898979486,6.618156843,0.774596669,3.633180425,9.818350167,8.729261137,10.16857906,2.449489743
253,5.403702434,3,0.447213595,0,5.477225575,13.12249976,15,4.098780306
254,5.830951895,6.356099433,0,2.828427125,9.777525249,7,9.939818912,0.447213595
255,8.613942187,0.774596669,0.447213595,1.264911064,4.171330723,12.8996124,12.39354671,0.447213595
256,3.768288736,2.449489743,2.449489743,0.447213595,1.483239697,12.40967365,11.26942767,1.673320053
257,8.23407554,1.673320053,0,0,1.673320053,17.52141547,7.810249676,1.673320053
258,6.340346994,2.236067977,1.673320053,3.033150178,4.449719092,31.67017524,5.440588203,4.098780306
259,28.77498914,4.75394573,1.341640786,1.732050808,21.83117038,28.03569154,32,1.341640786
260,19.40618458,2.48997992,0,4.049691346,5.253570215,17.40689519,9.919677414,0.632455532
261,9.176055798,1.673320053,0.447213595,0,6,25.21507486,10.09950494,0.632455532
262,5.709640969,5.196152423,2.645751311,0,3,2.236067977,2,1
263,13.03840481,1.341640786,0.774596669,2.449489743,11.26055061,13.25895924,29.77918736,0
264,6.403124237,6.403124237,2.19089023,1.673320053,6.678323143,1.341640786,1.732050808,1
265,19.9899975,5.495452666,1,1.183215957,13.40895223,17.98332561,5.495452666,4.516635916
266,2.144761059,3.687817783,1.483239697,1.095445115,18.34666182,0.447213595,15.25122946,1
267,4.816637832,2.449489743,1.673320053,4,17.61249556,23.04343724,20,3.974921383
268,13.49814802,5.796550698,2.097617696,0.632455532,13.53513945,4.774934555,5.099019514,1.095445115
269,5.813776741,5.253570215,1,0.894427191,2.48997992,43.64859677,5.157518783,0
270,13.0307329,6.016643583,1.949358869,2.19089023,9.838699101,15.5627761,7.886697661,6.403124237
271,18.6440339,3.193743885,2.449489743,8.876936408,14.18449858,4.69041576,2.236067977,5.07937004
272,15.3166576,2.75680975,0.632455532,0.632455532,17.35511452,13.87804021,5.310367219,2.097617696
273,4.024922359,0.447213595,1,4.582575695,35.12833614,17.74823935,27.14774392,1
274,15.54991961,4.472135955,0,2.236067977,2.607680962,17.08215443,4.335896678,3.405877273
275,21.41494805,5.422176685,0.632455532,1.414213562,3.31662479,25.16346558,12.82185634,3.435112807
276,11.61034022,4.816637832,0.447213595,2,10.94531863,5.899152482,10.73312629,0.774596669
277,4.979959839,0,1.341640786,1.095445115,9.38083152,10.7424392,11.22497216,0.632455532
278,9.110433579,4.774934555,0.774596669,3,9.011104261,14.51895313,6.708203932,4.242640687
279,20,3.768288736,0.774596669,1.341640786,16.08104474,9.099450533,8.966604709,3.130495168
280,6.899275324,4.604345773,0,0,8.637129153,4.669047012,12.7984374,1.483239697
281,5.196152423,2.720294102,1.095445115,0.632455532,3,3.224903099,7.042726745,1.673320053
282,16.52271164,3.193743885,1,4.516635916,11.54989177,16.76305461,10.22741414,1.673320053
283,7.549834435,6.164414003,1,1,16.99411663,5.899152482,5.440588203,2.607680962
284,2.097617696,5.692099788,4.242640687,0.632455532,3.847076812,2.236067977,23.18620279,1.483239697
285,8.049844719,13,4,14.07124728,43.71956084,2.645751311,13.01537552,3.435112807
286,1.483239697,4.358898944,0.774596669,0.632455532,2.720294102,4.358898944,3.405877273,1.949358869
287,13.81303732,6.6633325,0.632455532,1.095445115,2.236067977,6.164414003,9.284395511,4.242640687
288,28.19574436,12.08304597,0,3.033150178,1.341640786,9.044335244,8.831760866,2.449489743
289,10.09950494,5.099019514,2.683281573,0.632455532,1.673320053,0,8.899438185,3.577708764
290,4.837354649,2.792848009,1.341640786,0.774596669,3.31662479,17.53282636,8.843076388,3
291,24.74671695,13.53513945,3.130495168,1.732050808,1.095445115,7.056911506,21.00952165,0.632455532
292,5.253570215,2.144761059,0,0.632455532,20.93322718,3,10.82589488,3
293,11.74734012,8.426149773,1.095445115,4.69041576,1.673320053,4.494441011,6.782329983,1.341640786
294,30.01999334,3.130495168,3,4.242640687,29.88645178,30.99032107,9.252026805,2
295,13.44618905,4.857983121,1.095445115,0.774596669,11.44552314,6.260990337,6.164414003,1.673320053
296,18.6868938,1.095445115,1.095445115,3.633180425,17.69745744,28.12116641,8.23407554,3.872983346
297,12.95376393,15.42076522,3,5,11.54989177,15.76705426,8.282511696,1.414213562
298,9,1.673320053,1,1.897366596,5.196152423,50.39245975,7.974960815,1
299,20.70748657,25.81085043,5.495452666,1.673320053,0,9.044335244,5.54977477,0.632455532
300,24.34748447,2.19089023,0,4.098780306,20.95709904,27.75247737,6.418722614,0
301,6.480740698,5.422176685,1.673320053,5.656854249,12.55388386,16.486358,11.15347479,6.418722614
302,3.949683532,9.654014709,2.449489743,1.732050808,8.876936408,0.774596669,4.816637832,1.673320053
303,7.615773106,2.408318916,2,0.632455532,8.485281374,32.41604541,6.016643583,2.408318916
304,10.0895986,11.40175425,0.447213595,0,2.097617696,19.07354188,10.38267788,1.264911064
305,6.6633325,3.54964787,3.286335345,2.683281573,4.123105626,38.80979258,16.37070554,0
306,0.774596669,9,0.632455532,6,9.110433579,10.44030651,9.19782583,1.843908891
307,5.495452666,17.94993036,1.673320053,5.07937004,2,13.1605471,22.55216176,1
308,4.049691346,4.098780306,1.341640786,3.31662479,14.86606875,28.89636655,18.42281195,2.323790008
309,15.5241747,7.141428429,0.774596669,2.449489743,3.405877273,23.69810119,10.12916581,4.242640687
310,14.86606875,3.376388603,3.741657387,1.341640786,7.628892449,16.9351705,21.00952165,4.711687596
311,18.25924423,1.673320053,1.673320053,3.193743885,11.48041811,15.91854265,21.94994305,1.673320053
312,2.449489743,4.098780306,1,2.792848009,7,4.098780306,14.47756886,3.065941943
313,1.949358869,8.438009244,1.843908891,6.811754546,8.876936408,20.71231518,5.495452666,1.673320053
314,7.64198927,3,1.897366596,3.768288736,8.246211251,13.98570699,5.513619501,1.341640786
315,13.72588795,4.358898944,3,3,6.603029608,18.29754082,13.44618905,1.264911064
316,7.912016178,4.75394573,4.626013402,11.03630373,16.0623784,52.13060521,18.80425484,2
317,6.292853089,10,1.095445115,2.449489743,8.099382693,24.15367467,13.07669683,5.744562647
318,6.115553941,3.033150178,1.095445115,3.286335345,10.86278049,22.60088494,12.25561096,6.708203932
