time,emg1,emg2,emg3,emg4,emg5,emg6,emg7,emg8
0,26.84399374161751,1.0,2.6457513110645907,7.0,11.687600266949584,1.8973665961010275,2.449489742783178,3.872983346207417
1,11.081516141756055,1.7888543819998317,0.8944271909999159,3.40587727318528,4.0,3.492849839314596,2.7202941017470885,5.865151319446072
2,10.009995004993758,8.012490249604053,3.03315017762062,3.924283374069717,7.334848328356899,2.898275349237888,0.8944271909999159,5.458937625582473
3,7.733045971672482,4.449719092257398,1.9493588689617927,4.358898943540674,9.767292357659825,4.381780460041329,3.7682887362833544,6.985699678629192
4,14.785127662620976,5.495452665613635,0.4472135954999579,7.0,11.018166816671457,1.0,5.0,10.99090533122727
5,7.861297602813418,2.32379000772445,2.3664319132398464,7.0,4.2895221179054435,4.1952353926806065,4.312771730569565,3.714835124201342
6,12.860793132618221,5.272570530585627,3.0,3.0,2.6076809620810595,1.0,2.8635642126552705,6.985699678629192
7,11.135528725660043,2.0976176963403033,2.5298221281347035,5.059644256269407,5.966573556070519,1.0,3.492849839314596,11.428035701729321
8,25.775957790157864,3.03315017762062,1.1832159566199232,8.330666239863412,3.82099463490856,3.4351128074635335,4.753945729601885,9.465727652959385
9,8.78635305459552,4.6475800154489,1.5491933384829668,0.6324555320336759,0.6324555320336759,4.427188724235731,3.1622776601683795,17.826945896591486
10,10.14889156509222,2.280350850198276,2.0,6.971370023173351,12.288205727444508,3.872983346207417,3.872983346207417,7.628892449104261
11,17.793257149830662,3.4351128074635335,1.61245154965971,3.40587727318528,9.695359714832659,5.549774770204643,6.324555320336759,9.828529900244492
12,6.841052550594828,4.404543109109048,2.1908902300206643,3.8987177379235853,2.8635642126552705,3.872983346207417,3.924283374069717,5.458937625582473
13,8.306623862918075,2.7202941017470885,1.7888543819998317,5.176871642217914,2.449489742783178,5.848076606885378,4.427188724235731,9.6850400102426
14,30.600653587791225,3.82099463490856,1.7320508075688772,3.9496835316262997,5.813776741499453,2.6832815729997477,2.449489742783178,18.384776310850235
15,25.019992006393608,2.449489742783178,2.04939015319192,4.8166378315169185,4.219004621945797,2.1908902300206643,10.535653752852738,8.888194417315589
16,7.0710678118654755,3.521363372331802,3.1937438845342623,5.403702434442518,10.686440005914037,15.21840990379744,2.32379000772445,9.664367542679656
17,11.189280584559492,4.0743097574926725,2.0,5.118593556827891,15.270887335056859,1.4832396974191326,3.4351128074635335,5.727128425310541
18,12.198360545581526,2.898275349237888,0.8944271909999159,3.521363372331802,4.69041575982343,2.23606797749979,8.888194417315589,15.937377450509228
19,13.416407864998739,3.924283374069717,0.4472135954999579,4.753945729601885,7.224956747275377,3.3466401061363023,13.2664991614216,15.316657598836633
20,17.389652095427326,1.1832159566199232,1.1832159566199232,2.1908902300206643,5.549774770204643,2.32379000772445,3.4351128074635335,19.667231630303235
21,32.86639621254512,3.1622776601683795,0.4472135954999579,1.1832159566199232,0.4472135954999579,2.04939015319192,4.123105625617661,26.122786987609114
22,19.621416870348583,9.06642156531451,3.3763886032268267,4.669047011971501,5.422176684690384,3.521363372331802,3.3763886032268267,15.56277610196844
23,15.211837495845135,5.5677643628300215,2.569046515733026,2.4899799195977463,5.848076606885378,2.32379000772445,19.0840247327444,5.692099788303083
24,13.29661611087573,7.127411872482185,1.5491933384829668,3.4351128074635335,3.8987177379235853,1.0,14.832396974191326,13.957077057894322
25,7.402702209328699,3.0,0.8944271909999159,6.371812928829597,14.771594362153328,2.6832815729997477,6.0,12.884098726725126
26,8.854377448471462,4.312771730569565,2.4083189157584592,2.8635642126552705,4.753945729601885,2.32379000772445,3.6606010435446255,7.8230428862431785
27,19.544820285692065,3.3466401061363023,2.6457513110645907,4.516635916254486,6.496152707564686,1.7888543819998317,4.219004621945797,12.907362240210041
28,15.918542646863123,3.1304951684997055,1.0,2.9664793948382653,11.730302638892145,2.280350850198276,4.123105625617661,10.198039027185569
29,5.310367218940701,1.8973665961010275,2.0976176963403033,3.847076812334269,5.310367218940701,2.280350850198276,1.4832396974191326,13.784048752090222
30,12.457929201917949,2.569046515733026,2.3664319132398464,4.711687595755898,6.603029607687671,4.266145801540309,2.1447610589527217,11.054410884348384
31,11.874342087037917,1.2649110640673518,1.4142135623730951,7.874007874011811,10.009995004993758,3.794733192202055,2.932575659723036,4.449719092257398
32,16.14930339054908,1.0,1.5491933384829668,2.4083189157584592,3.6606010435446255,2.1908902300206643,2.32379000772445,10.69579356569675
33,4.494441010848846,5.9833101206606365,1.6733200530681511,13.015375522819156,3.794733192202055,2.898275349237888,4.732863826479693,15.678010077812809
34,4.857983120596447,2.280350850198276,1.2649110640673518,4.626013402488151,2.4083189157584592,4.024922359499621,4.449719092257398,20.134547424762246
35,28.43589281172652,2.449489742783178,3.1622776601683795,1.5491933384829668,10.324727599312245,4.516635916254486,7.5099933422074345,14.98666073546739
36,11.34019400186787,2.932575659723036,1.7888543819998317,5.039841267341661,8.438009243891594,3.255764119219941,3.687817782917155,4.69041575982343
37,12.553883861180172,3.1304951684997055,2.6832815729997477,4.898979485566356,6.54217089351845,5.779273310719955,5.513619500836088,12.457929201917949
38,14.98666073546739,3.714835124201342,1.2649110640673518,5.019960159204453,9.241212041718338,2.1447610589527217,4.58257569495584,15.498387012847498
39,15.836666315863324,4.33589667773576,1.9493588689617927,6.723094525588644,9.838699100999074,5.549774770204643,4.919349550499537,20.547505931377657
40,26.06913884270058,6.324555320336759,2.1447610589527217,3.3166247903554,7.0,4.516635916254486,6.54217089351845,7.536577472566709
41,19.864541273334254,3.0,0.7745966692414834,4.8166378315169185,12.296340919151518,3.924283374069717,7.224956747275377,14.730919862656235
42,22.56989144856483,2.0,2.932575659723036,3.286335345030997,4.147288270665544,3.4351128074635335,2.5298221281347035,19.110206696946005
43,18.541844568434932,3.0,3.03315017762062,5.779273310719955,7.92464510246358,3.1622776601683795,2.3664319132398464,7.835815209663893
44,17.274258305351346,1.61245154965971,0.8944271909999159,1.7320508075688772,4.669047011971501,2.3664319132398464,1.2649110640673518,6.855654600401044
45,18.34666182170479,2.449489742783178,1.0,2.898275349237888,4.33589667773576,2.1908902300206643,3.8987177379235853,15.407790237409127
46,19.743353311937668,5.385164807134504,0.7745966692414834,2.569046515733026,6.082762530298219,1.9493588689617927,4.449719092257398,24.0249869927124
47,20.415680248279752,6.340346993658944,1.9493588689617927,2.6832815729997477,1.8439088914585775,3.22490309931942,3.0,16.792855623746664
48,12.806248474865697,3.1937438845342623,0.7745966692414834,3.3466401061363023,8.590692637965812,2.280350850198276,3.4351128074635335,18.0
49,7.307530362578044,3.1304951684997055,1.3416407864998738,3.714835124201342,4.427188724235731,4.604345773288535,3.687817782917155,6.418722614352485
50,16.425589791541732,4.494441010848846,2.6457513110645907,5.692099788303083,5.385164807134504,1.4142135623730951,2.3664319132398464,16.11831256676703
51,17.60113632695344,2.04939015319192,1.3416407864998738,1.6733200530681511,6.0,4.0743097574926725,3.1304951684997055,13.311649033834989
52,10.14889156509222,7.113367697511496,4.0,1.6733200530681511,4.604345773288535,4.449719092257398,7.042726744663604,32.57299494980466
53,6.131883886702357,2.32379000772445,2.23606797749979,4.732863826479693,9.186947262284681,2.6076809620810595,7.707139547199077,5.422176684690384
54,15.066519173319364,1.2649110640673518,1.8973665961010275,3.7416573867739413,6.06630035524124,3.3466401061363023,4.857983120596447,12.116104984688768
55,18.21537811850196,3.286335345030997,3.40587727318528,4.024922359499621,4.449719092257398,1.0,5.176871642217914,10.14889156509222
56,12.041594578792296,2.0,0.8944271909999159,0.8944271909999159,3.255764119219941,2.8284271247461903,3.22490309931942,5.727128425310541
57,16.81071087134628,4.8373546489791295,2.5298221281347035,4.427188724235731,22.036333633342913,2.792848008753788,4.123105625617661,12.553883861180172
58,10.469001862641921,3.3466401061363023,1.4142135623730951,3.605551275463989,8.473488065725943,2.898275349237888,6.308724118235001,7.211102550927978
59,7.402702209328699,4.427188724235731,1.7888543819998317,8.820430828479978,8.06225774829855,3.3466401061363023,3.847076812334269,17.977764043395386
60,24.641428530018302,3.924283374069717,2.1447610589527217,3.3466401061363023,6.723094525588644,3.605551275463989,6.7379522111692065,14.879516121164693
61,26.229754097208,3.714835124201342,1.8973665961010275,4.669047011971501,5.882176467941097,1.8973665961010275,2.4083189157584592,10.285912696499032
62,33.689761055846034,3.286335345030997,1.0,3.8987177379235853,3.6606010435446255,0.8944271909999159,4.123105625617661,13.6088206689632
63,22.891046284519195,2.7202941017470885,1.0,2.4083189157584592,2.4083189157584592,1.2649110640673518,1.61245154965971,6.016643582596529
64,10.315037566582102,2.932575659723036,2.0,3.3466401061363023,6.082762530298219,3.794733192202055,6.6332495807108,21.227340860315028
65,7.113367697511496,2.9664793948382653,1.1832159566199232,4.312771730569565,5.882176467941097,2.3664319132398464,2.8635642126552705,11.47170431975999
66,13.408952233489387,6.618156843109719,1.9493588689617927,3.1937438845342623,3.3466401061363023,0.8944271909999159,2.1908902300206643,5.272570530585627
67,8.426149773176359,6.2289646009589745,1.7888543819998317,5.621387729022079,2.23606797749979,1.0954451150103321,4.024922359499621,13.16054710108968
68,17.60681686165901,2.932575659723036,1.5491933384829668,5.531726674375733,7.26636084983398,5.848076606885378,6.06630035524124,11.941524190822543
69,16.211107303327555,1.5491933384829668,1.3416407864998738,4.898979485566356,12.041594578792296,9.06642156531451,1.8973665961010275,4.898979485566356
70,19.245778757951054,6.418722614352485,2.5298221281347035,5.865151319446072,10.83512805646523,2.7202941017470885,5.639148871948674,14.296852800529214
71,17.00588133558505,6.131883886702357,1.8439088914585775,2.756809750418044,8.79772697916911,2.32379000772445,2.7202941017470885,18.88915032498815
72,7.974960814950754,4.0743097574926725,2.449489742783178,1.6733200530681511,9.316651759081692,1.5491933384829668,3.3466401061363023,1.0
73,27.294688127912362,1.6733200530681511,1.5491933384829668,9.316651759081692,18.09419796509367,3.521363372331802,1.6733200530681511,12.457929201917949
74,12.860793132618221,2.8284271247461903,2.0,4.09878030638384,4.795831523312719,3.3466401061363023,2.32379000772445,16.45600194457937
75,17.82133552795637,3.5777087639996634,2.8284271247461903,4.2895221179054435,6.752777206453653,1.2649110640673518,2.0976176963403033,14.198591479439079
76,16.00624877977348,2.7202941017470885,1.0,4.669047011971501,5.422176684690384,3.872983346207417,5.138093031466052,13.475904422338413
77,11.331372379372237,4.404543109109048,1.2649110640673518,6.371812928829597,12.497999839974394,3.22490309931942,4.123105625617661,18.82020191177555
78,10.69579356569675,5.495452665613635,2.6076809620810595,4.449719092257398,8.390470785361213,2.5298221281347035,10.545141061171254,17.90530647601431
79,7.758865896508329,1.7888543819998317,1.2649110640673518,3.794733192202055,10.788883167408942,5.0990195135927845,4.898979485566356,9.591663046625438
80,11.738824472663351,1.1832159566199232,2.280350850198276,5.761944116355173,6.29285308902091,3.1622776601683795,3.7682887362833544,8.843076387773658
81,10.554619841567009,0.8944271909999159,0.8944271909999159,6.6932802122726045,5.830951894845301,2.4083189157584592,5.779273310719955,5.966573556070519
82,10.04987562112089,2.4083189157584592,1.0,6.648308055437865,3.924283374069717,3.255764119219941,5.779273310719955,5.366563145999495
83,18.433664855367205,4.0743097574926725,0.7745966692414834,2.7202941017470885,7.628892449104261,1.6733200530681511,1.2649110640673518,9.909591313469996
84,61.45892937564077,2.449489742783178,1.0,3.924283374069717,5.440588203494177,2.0,3.22490309931942,13.221195104830729
85,6.48074069840786,2.9664793948382653,2.0,5.882176467941097,11.0,2.6457513110645907,4.427188724235731,12.609520212918492
86,23.06078923194087,2.280350850198276,1.6733200530681511,3.4351128074635335,1.5491933384829668,2.4083189157584592,4.1952353926806065,21.400934559032695
87,11.661903789690601,2.932575659723036,2.449489742783178,5.118593556827891,6.115553940568262,2.932575659723036,5.253570214625479,35.80782037488459
88,6.276941930590086,3.492849839314596,2.569046515733026,2.449489742783178,2.0,4.959838707054898,2.8635642126552705,28.747173774129518
89,13.978555004005242,4.024922359499621,0.7745966692414834,3.521363372331802,6.2289646009589745,3.0,3.255764119219941,7.37563556583431
90,19.79898987322333,3.22490309931942,1.0,4.795831523312719,8.402380615040002,2.9664793948382653,4.049691346263317,10.620734437881403
91,9.979979959899719,4.0743097574926725,1.8973665961010275,1.8973665961010275,2.6457513110645907,2.6457513110645907,5.692099788303083,4.8166378315169185
92,9.929753269845127,2.4899799195977463,2.23606797749979,6.212889826803627,8.54400374531753,2.3664319132398464,4.6475800154489,9.57078889120432
93,22.7508241608958,5.059644256269407,1.9493588689617927,8.246211251235321,5.674504383644443,2.3664319132398464,4.123105625617661,8.67179335547152
94,21.02855201862458,4.6475800154489,4.024922359499621,7.042726744663604,7.771743691090179,3.255764119219941,5.744562646538029,14.38749456993816
95,12.0,4.049691346263317,1.4832396974191326,11.090536506409418,3.872983346207417,0.8944271909999159,6.418722614352485,6.276941930590086
96,18.281137820168635,6.356099432828281,2.6076809620810595,11.045361017187261,7.886697661252142,3.22490309931942,2.756809750418044,22.0
97,13.638181696985855,6.942621983083913,2.0,10.0,8.820430828479978,2.569046515733026,5.813776741499453,10.658330075579382
98,4.47213595499958,2.569046515733026,0.8944271909999159,6.985699678629192,4.0,1.4832396974191326,2.1908902300206643,10.535653752852738
99,20.523157651784484,4.049691346263317,1.61245154965971,3.4641016151377544,12.735776379946374,4.0743097574926725,5.709640969448079,6.131883886702357
100,12.727922061357855,4.266145801540309,1.1832159566199232,5.422176684690384,9.044335243676011,2.0976176963403033,3.6606010435446255,16.625281952496323
101,14.38749456993816,3.22490309931942,1.9493588689617927,2.23606797749979,8.473488065725943,2.1908902300206643,5.9833101206606365,13.572030061858838
102,19.349418595916518,3.22490309931942,1.3416407864998738,13.885243966167826,7.211102550927978,4.8166378315169185,1.0,27.80287754891569
103,16.53481176185565,3.40587727318528,2.449489742783178,15.381807436059,7.937253933193772,4.669047011971501,5.796550698475776,17.064583206161235
104,16.952875862224673,3.4351128074635335,0.6324555320336759,5.2345009313209605,11.687600266949584,2.756809750418044,3.1937438845342623,3.0
105,14.621901381147392,2.7202941017470885,0.8944271909999159,6.276941930590086,8.06225774829855,4.47213595499958,1.8439088914585775,10.963576058932597
106,12.521980673998822,5.157518783291051,0.6324555320336759,7.293833011524188,2.23606797749979,4.626013402488151,3.0659419433511785,19.245778757951054
107,22.27554713132766,2.932575659723036,1.9493588689617927,6.44980619863884,12.553883861180172,4.494441010848846,3.7416573867739413,10.029955134495866
108,8.648699324175862,3.1304951684997055,2.6832815729997477,16.607227342335023,6.971370023173351,1.6733200530681511,2.280350850198276,7.745966692414834
109,25.083859352181037,2.7202941017470885,0.7745966692414834,6.603029607687671,5.138093031466052,5.966573556070519,1.4832396974191326,17.58976975403601
110,18.36300628982085,2.1908902300206643,2.6457513110645907,7.224956747275377,7.211102550927978,9.412757300600074,5.513619500836088,10.545141061171254
111,21.307275752662516,4.381780460041329,3.0983866769659336,5.830951894845301,12.441864811996632,3.6606010435446255,5.639148871948674,12.465953633797938
112,8.136338242723197,3.9749213828703582,2.23606797749979,6.572670690061994,15.836666315863324,4.9396356140913875,6.115553940568262,21.540659228538015
113,11.480418110852932,3.492849839314596,1.7888543819998317,5.215361924162119,8.67179335547152,3.521363372331802,2.4083189157584592,7.58946638440411
114,13.754999091239519,2.1908902300206643,2.4083189157584592,6.782329983125268,5.019960159204453,3.492849839314596,3.4351128074635335,17.73696704625681
115,36.54586159881855,4.404543109109048,1.8973665961010275,6.870225614927067,6.2289646009589745,3.521363372331802,5.422176684690384,39.00769154923167
116,25.071896617527763,3.9749213828703582,3.1304951684997055,4.312771730569565,7.0,1.61245154965971,1.0,27.996428343629834
117,14.717336715588184,3.3466401061363023,4.024922359499621,4.494441010848846,10.507140429250958,1.3416407864998738,0.7745966692414834,12.116104984688768
118,21.582400237230335,5.215361924162119,2.6832815729997477,2.8284271247461903,18.782971010998235,1.3416407864998738,2.8284271247461903,25.522539058643833
119,6.308724118235001,2.6832815729997477,1.8439088914585775,4.494441010848846,6.131883886702357,3.521363372331802,9.08845421400141,20.396078054371138
120,13.83473888441701,2.04939015319192,1.8439088914585775,9.327379053088816,10.954451150103322,4.8166378315169185,4.266145801540309,14.717336715588184
121,6.572670690061994,2.0,1.61245154965971,2.1908902300206643,2.932575659723036,1.1832159566199232,2.1447610589527217,10.927030703718188
122,25.175384803414623,5.272570530585627,2.1908902300206643,14.085453489327207,3.9496835316262997,5.513619500836088,2.4083189157584592,6.782329983125268
123,18.384776310850235,4.604345773288535,2.23606797749979,7.293833011524188,11.018166816671457,7.0710678118654755,4.8373546489791295,11.445523142259598
124,14.805404418657398,5.621387729022079,2.1908902300206643,7.912016177940993,9.746794344808963,4.33589667773576,6.465291950097845,10.382677881933928
125,5.291502622129181,2.4083189157584592,2.5298221281347035,4.123105625617661,8.729261137118078,4.312771730569565,2.9664793948382653,15.407790237409127
126,11.815244390193543,2.792848008753788,1.61245154965971,4.0743097574926725,11.126544836560898,7.9498427657407165,5.291502622129181,15.754364474646383
127,5.692099788303083,2.32379000772445,1.4142135623730951,3.872983346207417,7.937253933193772,2.898275349237888,11.054410884348384,23.811761799581316
128,8.037412518964047,2.5298221281347035,2.0,4.0,3.687817782917155,3.40587727318528,6.81175454637056,17.418381095842403
129,10.0,3.924283374069717,3.255764119219941,14.092551223962253,9.033271832508971,3.82099463490856,0.7745966692414834,34.27827300200522
130,12.17374223482656,2.5298221281347035,0.0,2.0,3.82099463490856,3.521363372331802,4.494441010848846,28.628656971642943
131,16.099689437998485,1.61245154965971,1.4832396974191326,6.913754406977442,11.687600266949584,1.3416407864998738,2.7202941017470885,15.993748778819805
132,22.56989144856483,3.22490309931942,2.932575659723036,4.1952353926806065,6.603029607687671,2.3664319132398464,5.916079783099616,20.625227271475094
133,5.9833101206606365,3.924283374069717,2.6076809620810595,2.4083189157584592,11.135528725660043,2.756809750418044,5.176871642217914,33.91754708112012
134,16.715262486721528,1.6733200530681511,0.8944271909999159,7.0992957397195395,15.678010077812809,0.8944271909999159,3.1622776601683795,17.291616465790582
135,9.808159868191384,3.4351128074635335,1.4832396974191326,1.4142135623730951,6.06630035524124,6.0,4.266145801540309,13.718600511714014
136,16.15549442140351,2.23606797749979,2.32379000772445,11.063453348751466,7.307530362578044,6.0332412515993425,5.253570214625479,7.334848328356899
137,10.382677881933928,4.0743097574926725,2.32379000772445,4.494441010848846,6.6932802122726045,1.2649110640673518,4.404543109109048,12.529964086141668
138,28.53769437077915,3.63318042491699,1.61245154965971,5.639148871948674,5.89915248150105,5.079370039680118,8.390470785361213,14.394443372357264
139,24.61706725018234,5.639148871948674,1.4832396974191326,4.049691346263317,8.8656641037206,1.0954451150103321,7.085195833567341,19.042058712229622
140,29.637813684548327,4.0,1.4142135623730951,6.148170459575759,9.316651759081692,5.079370039680118,3.687817782917155,7.26636084983398
141,10.554619841567009,7.416198487095663,2.449489742783178,3.4351128074635335,10.779610382569492,3.3466401061363023,15.491933384829668,17.86057109949175
142,9.602083107326242,4.516635916254486,3.0983866769659336,4.732863826479693,5.513619500836088,5.813776741499453,4.919349550499537,11.16243700990066
143,15.026643005009468,3.687817782917155,1.0,1.5491933384829668,3.1304951684997055,9.50789145920377,4.732863826479693,2.756809750418044
144,12.751470503436064,3.40587727318528,2.32379000772445,6.0332412515993425,5.709640969448079,4.516635916254486,9.777525249264253,8.18535277187245
145,11.949895397031725,1.8439088914585775,2.449489742783178,2.32379000772445,6.648308055437865,8.402380615040002,5.477225575051661,15.956190021430555
146,11.480418110852932,3.4351128074635335,2.6832815729997477,1.61245154965971,5.727128425310541,2.0,5.385164807134504,11.8490505948789
147,18.568791021496256,3.492849839314596,1.2649110640673518,5.291502622129181,6.752777206453653,3.3166247903554,2.5298221281347035,8.209750300709517
148,14.310835055998654,1.7888543819998317,2.04939015319192,4.0,9.85900603509299,4.8166378315169185,2.756809750418044,9.818350166906862
149,23.16031087874254,3.1622776601683795,1.3416407864998738,4.266145801540309,10.972693379476162,5.272570530585627,5.2345009313209605,12.0
150,16.964669168598604,4.516635916254486,1.2649110640673518,3.40587727318528,7.127411872482185,3.255764119219941,3.63318042491699,10.981803130633876
151,13.023056476879765,3.255764119219941,2.04939015319192,4.753945729601885,15.735310610216755,3.255764119219941,4.857983120596447,12.96919426949878
152,32.67108813614876,9.06642156531451,5.176871642217914,10.611314715905847,9.50789145920377,3.847076812334269,1.2649110640673518,14.44299137990465
153,9.591663046625438,3.82099463490856,1.2649110640673518,5.727128425310541,9.602083107326242,5.215361924162119,3.924283374069717,13.36413109783049
154,27.294688127912362,2.0,2.569046515733026,7.745966692414834,9.828529900244492,5.422176684690384,5.215361924162119,15.80506248010428
155,29.742225875008078,2.3664319132398464,1.7888543819998317,5.813776741499453,7.0285133563222315,1.7888543819998317,6.06630035524124,13.3566462856512
156,14.791889669680478,3.3466401061363023,2.569046515733026,3.521363372331802,8.366600265340756,4.219004621945797,4.8373546489791295,2.0
157,5.709640969448079,3.82099463490856,3.3466401061363023,5.513619500836088,12.393546707863734,4.732863826479693,2.3664319132398464,11.428035701729321
158,14.049911031746785,4.604345773288535,0.8944271909999159,6.260990336999411,9.674709297958259,3.6606010435446255,1.8973665961010275,12.296340919151518
159,10.611314715905847,4.09878030638384,1.2649110640673518,1.4832396974191326,9.327379053088816,0.0,3.1622776601683795,12.288205727444508
160,7.483314773547883,4.358898943540674,1.7888543819998317,2.7202941017470885,8.35463942968217,3.5777087639996634,1.61245154965971,8.988882021697693
161,7.64198926981712,1.8439088914585775,0.8944271909999159,4.2895221179054435,9.6850400102426,1.8439088914585775,2.23606797749979,4.47213595499958
162,5.882176467941097,5.692099788303083,2.6457513110645907,8.294576541331088,12.328828005937952,0.8944271909999159,2.932575659723036,8.473488065725943
163,11.331372379372237,4.8373546489791295,2.1447610589527217,8.037412518964047,13.341664064126334,6.016643582596529,2.32379000772445,10.019980039900279
164,8.497058314499201,3.1622776601683795,3.22490309931942,6.260990336999411,9.433981132056603,5.865151319446072,9.622889378975527,8.637129152675673
165,8.921883209278185,4.560701700396552,0.8944271909999159,2.1908902300206643,4.242640687119285,2.0,4.147288270665544,18.088670487352022
166,11.8911731969558,1.4832396974191326,1.6733200530681511,2.756809750418044,8.438009243891594,7.211102550927978,4.626013402488151,8.414273587185052
167,14.394443372357264,2.280350850198276,1.6733200530681511,6.855654600401044,6.797058187186572,2.932575659723036,2.449489742783178,11.34019400186787
168,12.946041866145807,4.427188724235731,2.1908902300206643,4.560701700396552,6.511528238439882,4.47213595499958,5.477225575051661,5.310367218940701
169,15.665248162732693,5.291502622129181,1.0954451150103321,4.898979485566356,7.496665925596525,3.3466401061363023,2.23606797749979,10.069756700139283
170,9.0,4.358898943540674,2.6457513110645907,9.1104335791443,1.6733200530681511,4.58257569495584,3.03315017762062,7.293833011524188
171,16.037456157383563,3.9749213828703582,2.7202941017470885,5.118593556827891,8.378544026261364,2.1447610589527217,5.403702434442518,19.406184581210187
172,14.449913494550755,2.0,0.7745966692414834,4.732863826479693,10.353743284435827,2.32379000772445,6.0,21.194338866782328
173,12.751470503436064,3.872983346207417,2.280350850198276,10.825894882179487,6.723094525588644,3.492849839314596,4.669047011971501,23.853720883753127
174,18.16590212458495,4.8166378315169185,3.63318042491699,4.494441010848846,7.848566748139434,6.148170459575759,3.521363372331802,5.059644256269407
175,14.913081505845799,3.5496478698597698,3.492849839314596,2.04939015319192,4.560701700396552,8.977750274985375,4.878524367060187,45.71651780264984
176,14.028542333400146,2.449489742783178,1.4832396974191326,2.8635642126552705,5.9833101206606365,3.6606010435446255,2.898275349237888,24.34748446965312
177,10.507140429250958,2.0,2.3664319132398464,3.4351128074635335,6.016643582596529,5.138093031466052,8.12403840463596,13.813037319865606
178,33.34666400106613,4.219004621945797,3.22490309931942,4.123105625617661,4.857983120596447,7.321202087089251,8.988882021697693,16.47422228816887
179,11.497825881443848,3.605551275463989,2.8284271247461903,10.285912696499032,20.866240677227893,9.486832980505138,2.449489742783178,9.85900603509299
180,14.946571513226704,3.0659419433511785,1.2649110640673518,1.1832159566199232,3.924283374069717,8.449852069711044,4.2895221179054435,13.130118049735882
181,22.176564206386885,1.2649110640673518,1.0954451150103321,1.4142135623730951,3.4351128074635335,6.244997998398398,3.255764119219941,6.511528238439882
182,14.825653442597396,4.0743097574926725,0.8944271909999159,8.532291603080617,18.34666182170479,2.1908902300206643,4.024922359499621,6.572670690061994
183,9.402127418834526,2.04939015319192,1.8439088914585775,2.4083189157584592,8.099382692526634,1.0,4.1952353926806065,9.338094023943002
184,8.78635305459552,1.4832396974191326,2.04939015319192,4.1952353926806065,7.733045971672482,2.280350850198276,3.4351128074635335,18.989470766717012
185,17.25108692227826,6.2289646009589745,3.0,2.4083189157584592,6.48074069840786,5.458937625582473,4.8166378315169185,38.98204714993813
186,26.02690915187587,3.0,2.04939015319192,3.0,3.872983346207417,3.0983866769659336,1.5491933384829668,11.428035701729321
187,17.725687574816384,4.449719092257398,1.7888543819998317,1.0,3.82099463490856,2.1908902300206643,4.669047011971501,4.33589667773576
188,17.663521732655695,3.1622776601683795,1.4142135623730951,5.385164807134504,7.848566748139434,2.04939015319192,3.872983346207417,9.327379053088816
189,13.579396157414365,5.813776741499453,2.6832815729997477,4.266145801540309,6.2289646009589745,1.4142135623730951,1.0,7.483314773547883
190,8.79772697916911,4.1952353926806065,1.0954451150103321,3.492849839314596,7.37563556583431,7.014271166700073,3.6606010435446255,3.0659419433511785
191,8.07465169527454,1.9493588689617927,1.2649110640673518,5.310367218940701,8.318653737234168,2.898275349237888,5.813776741499453,2.449489742783178
192,12.569805089976535,3.5777087639996634,3.22490309931942,6.244997998398398,18.750999973334757,5.176871642217914,6.526867548832288,21.03330692021585
193,14.226735395022992,0.7745966692414834,1.61245154965971,1.8439088914585775,6.324555320336759,2.0,3.3466401061363023,2.1447610589527217
194,5.727128425310541,3.605551275463989,0.4472135954999579,2.7202941017470885,3.82099463490856,4.219004621945797,3.794733192202055,4.753945729601885
195,11.054410884348384,2.8635642126552705,2.4083189157584592,2.4083189157584592,5.366563145999495,3.6606010435446255,10.079682534683322,13.769531582446804
196,8.660254037844387,2.9664793948382653,3.4351128074635335,3.1937438845342623,4.404543109109048,2.5298221281347035,5.253570214625479,17.326280616450838
197,11.349008767288886,3.82099463490856,2.6457513110645907,3.6606010435446255,4.449719092257398,4.795831523312719,6.572670690061994,13.30413469565007
198,31.752165280497014,5.366563145999495,1.1832159566199232,2.23606797749979,2.7202941017470885,4.669047011971501,5.865151319446072,14.261837188805655
199,6.131883886702357,4.049691346263317,1.0954451150103321,4.1952353926806065,11.653325705565772,3.7416573867739413,2.23606797749979,8.955445270895245
200,14.946571513226704,2.9664793948382653,1.7320508075688772,4.1952353926806065,3.5777087639996634,4.69041575982343,6.7379522111692065,7.8230428862431785
201,15.924823389915506,4.427188724235731,2.04939015319192,1.6733200530681511,8.520563361656317,10.917875251164945,5.0,8.0
202,9.939818911831342,3.1622776601683795,0.7745966692414834,3.605551275463989,7.694153624668538,4.0743097574926725,13.6088206689632,17.469974241537965
203,5.932958789676531,2.8635642126552705,1.4142135623730951,3.3466401061363023,5.059644256269407,2.6832815729997477,7.443117626371358,12.409673645990857
204,7.389181280764467,4.266145801540309,2.0,3.1937438845342623,6.324555320336759,2.0,10.620734437881403,4.795831523312719
205,15.722595205626837,3.255764119219941,1.7888543819998317,11.755849607748475,5.157518783291051,3.40587727318528,3.687817782917155,15.537052487521564
206,12.312595177297109,1.4142135623730951,2.5298221281347035,4.753945729601885,12.361229712289955,2.898275349237888,5.60357029044876,5.385164807134504
207,21.109239683134017,5.9833101206606365,2.7202941017470885,3.9749213828703582,6.870225614927067,2.756809750418044,3.286335345030997,4.604345773288535
208,10.039920318408907,5.621387729022079,0.8944271909999159,2.898275349237888,6.767569726275452,6.418722614352485,5.477225575051661,13.949910393977447
209,15.290519938837921,3.0,2.4083189157584592,5.039841267341661,6.131883886702357,2.1447610589527217,5.727128425310541,4.1952353926806065
210,5.019960159204453,2.4083189157584592,2.569046515733026,9.38083151964686,16.786899654194638,5.118593556827891,2.280350850198276,11.549891774384728
211,14.007141035914502,5.796550698475776,1.8973665961010275,4.2895221179054435,8.087026647662292,1.5491933384829668,6.899275324264136,10.019980039900279
212,16.786899654194638,5.291502622129181,1.5491933384829668,4.242640687119285,10.611314715905847,1.8973665961010275,2.6832815729997477,6.324555320336759
213,11.045361017187261,4.47213595499958,1.4832396974191326,2.898275349237888,7.615773105863909,6.04979338490167,10.16857905510893,3.714835124201342
214,11.593101396951552,5.830951894845301,1.4142135623730951,3.687817782917155,4.732863826479693,2.1908902300206643,3.7416573867739413,4.9396356140913875
215,5.5677643628300215,2.8635642126552705,2.7202941017470885,1.7888543819998317,4.6475800154489,0.4472135954999579,7.962411694957753,5.059644256269407
216,19.879637823662684,5.272570530585627,3.1304951684997055,5.0990195135927845,7.429670248402684,1.4832396974191326,3.521363372331802,12.198360545581526
217,19.15202339179858,3.1937438845342623,1.8439088914585775,3.4351128074635335,3.3466401061363023,3.82099463490856,3.1622776601683795,4.494441010848846
218,27.099815497526915,5.079370039680118,2.932575659723036,5.215361924162119,7.429670248402684,2.1908902300206643,3.1937438845342623,8.23407554009556
219,25.538206671573477,2.04939015319192,1.0954451150103321,1.4142135623730951,6.782329983125268,4.1952353926806065,2.280350850198276,7.443117626371358
220,17.10555465338672,4.312771730569565,1.0,15.073154945133417,8.318653737234168,2.4899799195977463,8.209750300709517,7.014271166700073
221,10.411532067856296,1.2649110640673518,1.4832396974191326,5.621387729022079,6.6932802122726045,1.2649110640673518,11.135528725660043,5.5677643628300215
222,19.3700800204852,1.8439088914585775,1.61245154965971,5.865151319446072,14.317821063276353,7.469939758793239,13.175735273600482,7.874007874011811
223,17.064583206161235,4.09878030638384,2.0976176963403033,3.1622776601683795,5.932958789676531,2.3664319132398464,7.5099933422074345,9.777525249264253
224,6.7379522111692065,2.23606797749979,1.3416407864998738,6.260990336999411,13.386560424545209,2.23606797749979,3.5777087639996634,7.797435475847171
225,16.504544828622205,2.6457513110645907,1.5491933384829668,3.7416573867739413,4.919349550499537,2.8284271247461903,10.601886624558858,11.983321743156194
226,8.246211251235321,2.4083189157584592,1.4832396974191326,2.280350850198276,4.626013402488151,4.795831523312719,4.0,6.465291950097845
227,20.440156555173445,3.63318042491699,3.1622776601683795,4.857983120596447,8.330666239863412,2.7202941017470885,2.0,3.714835124201342
228,18.563404860100423,2.0,0.6324555320336759,5.796550698475776,11.489125293076057,3.7416573867739413,5.253570214625479,8.497058314499201
229,10.611314715905847,2.6457513110645907,2.280350850198276,1.0,2.23606797749979,0.7745966692414834,3.63318042491699,6.855654600401044
230,14.296852800529214,4.147288270665544,3.3466401061363023,5.366563145999495,12.649110640673518,3.847076812334269,3.22490309931942,26.27165773224065
231,4.959838707054898,5.019960159204453,0.7745966692414834,3.521363372331802,9.011104260855047,3.4351128074635335,5.2345009313209605,25.772077913897437
232,20.673654732533382,3.82099463490856,1.0,4.312771730569565,10.853570840972107,3.286335345030997,4.404543109109048,11.532562594670797
233,14.15627069534911,2.8635642126552705,1.4832396974191326,2.7202941017470885,10.83512805646523,4.33589667773576,2.23606797749979,6.957010852370434
234,13.878040207464453,1.4832396974191326,1.2649110640673518,1.6733200530681511,3.63318042491699,2.0,4.898979485566356,7.771743691090179
235,9.969954864491614,3.03315017762062,1.0,2.5298221281347035,10.554619841567009,2.898275349237888,4.049691346263317,3.521363372331802
236,15.086417732516887,1.0,0.8944271909999159,2.0976176963403033,6.855654600401044,2.932575659723036,4.0,24.351591323771842
237,12.821856339859686,3.63318042491699,3.8987177379235853,18.35755975068582,12.30447073221762,6.148170459575759,7.874007874011811,43.27585932133526
238,10.648943609579309,1.2649110640673518,1.1832159566199232,4.147288270665544,4.898979485566356,2.4083189157584592,5.253570214625479,15.05323885414697
239,19.256167843057455,4.09878030638384,2.449489742783178,2.1908902300206643,8.602325267042627,3.40587727318528,5.422176684690384,7.211102550927978
240,12.312595177297109,5.059644256269407,1.1832159566199232,2.449489742783178,7.0992957397195395,4.147288270665544,4.171330722922842,19.778776504121787
241,8.602325267042627,1.5491933384829668,1.4142135623730951,2.449489742783178,6.164414002968976,4.604345773288535,4.049691346263317,12.312595177297109
242,9.746794344808963,3.0,1.1832159566199232,3.22490309931942,7.771743691090179,2.04939015319192,10.178408519999577,15.0
243,24.580480060405655,6.016643582596529,1.9493588689617927,3.3466401061363023,8.438009243891594,3.1304951684997055,5.744562646538029,23.765521244020714
244,16.76305461424021,4.147288270665544,2.449489742783178,5.347896782848375,11.696153213770756,4.0,5.692099788303083,19.375241933973367
245,6.131883886702357,2.7202941017470885,3.1304951684997055,4.1952353926806065,3.794733192202055,1.2649110640673518,8.35463942968217,6.767569726275452
246,12.577758146824099,6.2289646009589745,1.5491933384829668,3.22490309931942,8.54400374531753,3.8987177379235853,4.312771730569565,20.287927444665215
247,30.33479849941318,4.516635916254486,1.4142135623730951,5.347896782848375,6.928203230275509,2.7202941017470885,1.7888543819998317,14.484474446799926
248,13.906832852953976,4.857983120596447,1.2649110640673518,2.0976176963403033,4.381780460041329,3.3466401061363023,7.0992957397195395,23.757104200638594
249,21.45693361130616,1.4832396974191326,1.0,11.61895003862225,3.1304951684997055,3.5777087639996634,3.03315017762062,14.805404418657398
250,12.712198865656562,2.0976176963403033,1.0,4.266145801540309,8.763560920082657,2.7202941017470885,6.6783231428256,28.41830396065184
251,7.536577472566709,2.1908902300206643,1.8439088914585775,4.049691346263317,7.183313998427188,2.8284271247461903,2.932575659723036,3.82099463490856
252,13.70401401050072,3.521363372331802,1.2649110640673518,2.280350850198276,7.014271166700073,9.09945053286186,5.761944116355173,17.123083834403193
253,18.127327436773463,2.898275349237888,3.255764119219941,3.605551275463989,5.5677643628300215,4.0743097574926725,6.324555320336759,15.033296378372908
254,15.56277610196844,4.266145801540309,3.22490309931942,9.879271228182775,20.83266665599966,1.61245154965971,2.756809750418044,2.6457513110645907
255,20.8806130178211,4.69041575982343,7.810249675906654,21.23205124334434,42.92085740056925,16.1245154965971,7.252585745787498,65.34982784981152
256,19.406184581210187,7.443117626371358,1.4832396974191326,6.016643582596529,4.123105625617661,2.04939015319192,4.753945729601885,23.40939982143925
257,8.12403840463596,2.0,1.6733200530681511,7.26636084983398,12.806248474865697,2.8635642126552705,5.830951894845301,23.54145280138845
258,13.311649033834989,1.8439088914585775,2.1908902300206643,2.0,7.155417527999327,2.9664793948382653,2.0,25.44798616786798
259,11.063453348751466,3.687817782917155,1.5491933384829668,2.569046515733026,3.605551275463989,1.3416407864998738,0.7745966692414834,18.793615937333612
260,8.752142594816426,6.276941930590086,1.9493588689617927,6.244997998398398,14.135062787267696,9.879271228182775,4.404543109109048,5.0
261,6.0332412515993425,4.09878030638384,2.0,8.648699324175862,14.886235252742717,6.0,9.143303560529969,15.093044755780724
262,17.389652095427326,8.294576541331088,2.569046515733026,4.266145801540309,8.820430828479978,3.286335345030997,10.554619841567009,12.529964086141668
263,15.349267083479914,3.4351128074635335,1.0,2.32379000772445,2.0,4.147288270665544,4.959838707054898,7.92464510246358
264,12.00833044182246,4.626013402488151,1.6733200530681511,4.0743097574926725,5.531726674375733,2.449489742783178,1.4832396974191326,12.280065146407
265,11.269427669584644,4.69041575982343,2.0,2.0976176963403033,3.1304951684997055,3.492849839314596,3.714835124201342,25.553864678361276
266,8.294576541331088,3.255764119219941,2.9664793948382653,1.61245154965971,2.8284271247461903,1.9493588689617927,4.58257569495584,16.69730517179344
267,4.0,5.89915248150105,3.1622776601683795,3.521363372331802,2.449489742783178,4.449719092257398,6.957010852370434,15.665248162732693
268,6.276941930590086,3.521363372331802,1.3416407864998738,4.604345773288535,14.463747785411636,1.4832396974191326,3.82099463490856,8.23407554009556
269,9.518403227432634,1.8973665961010275,1.2649110640673518,3.924283374069717,6.324555320336759,2.6457513110645907,2.0,11.636150566231086
270,3.5777087639996634,0.8944271909999159,0.8944271909999159,4.123105625617661,7.848566748139434,2.7202941017470885,2.4899799195977463,14.120906486483083
271,8.294576541331088,1.9493588689617927,2.04939015319192,2.6457513110645907,1.0,4.669047011971501,1.3416407864998738,4.8166378315169185
272,27.429910681589906,5.059644256269407,1.7320508075688772,3.286335345030997,7.0992957397195395,3.492849839314596,4.795831523312719,9.767292357659825
273,27.989283663573815,5.458937625582473,2.5298221281347035,4.123105625617661,2.6832815729997477,4.2895221179054435,2.7202941017470885,16.099689437998485
274,35.062800800848756,6.826419266350405,2.6457513110645907,15.549919613940132,6.985699678629192,5.692099788303083,5.796550698475776,7.758865896508329
275,23.874672772626646,2.8635642126552705,1.4832396974191326,4.626013402488151,3.872983346207417,2.8635642126552705,2.0,18.69224438102605
276,12.47397290361014,2.6457513110645907,3.4351128074635335,5.422176684690384,7.416198487095663,7.085195833567341,2.0,20.332240407785857
277,18.989470766717012,1.5491933384829668,0.7745966692414834,1.61245154965971,5.5677643628300215,3.521363372331802,1.4832396974191326,13.206059215375342
278,17.05872210923198,1.8973665961010275,1.7320508075688772,9.444575162494075,8.426149773176359,4.0,3.3466401061363023,12.14084016862095
279,5.118593556827891,3.794733192202055,2.4083189157584592,3.924283374069717,7.321202087089251,2.04939015319192,3.0,7.238784428341543
280,5.385164807134504,3.4351128074635335,2.449489742783178,1.8439088914585775,5.692099788303083,6.572670690061994,6.06630035524124,20.199009876724155
281,13.899640283115243,7.899367063252599,3.3466401061363023,8.18535277187245,13.64551208273255,10.459445491994305,6.572670690061994,46.04780125043975
282,15.868207208125309,3.8987177379235853,2.32379000772445,4.123105625617661,7.496665925596525,5.157518783291051,2.280350850198276,29.161618610769874
283,5.0,3.492849839314596,1.2649110640673518,3.924283374069717,4.171330722922842,9.402127418834526,1.7320508075688772,26.765649627834552
284,10.963576058932597,1.0,2.0,1.2649110640673518,2.8284271247461903,5.727128425310541,7.211102550927978,36.235341863986875
285,3.63318042491699,1.4832396974191326,0.7745966692414834,7.042726744663604,3.4351128074635335,1.0,6.2289646009589745,26.76191323504357
286,22.13142562059661,11.392980294900891,2.6457513110645907,3.255764119219941,9.939818911831342,3.794733192202055,5.9833101206606365,7.771743691090179
287,29.678274882479272,10.039920318408907,3.40587727318528,1.9493588689617927,4.449719092257398,5.272570530585627,2.04939015319192,11.815244390193543
288,19.657059800488984,3.286335345030997,1.7888543819998317,2.792848008753788,6.016643582596529,9.969954864491614,4.8373546489791295,13.798550648528272
289,17.927632303235136,5.403702434442518,1.0954451150103321,12.67280552995271,3.3466401061363023,2.792848008753788,9.797958971132712,9.186947262284681
290,5.118593556827891,3.286335345030997,1.0,3.1622776601683795,5.403702434442518,2.932575659723036,10.039920318408907,6.782329983125268
291,8.94427190999916,1.61245154965971,2.3664319132398464,2.9664793948382653,6.6332495807108,4.1952353926806065,5.932958789676531,6.06630035524124
292,8.94427190999916,1.7888543819998317,2.6457513110645907,3.1304951684997055,7.443117626371358,2.7202941017470885,4.312771730569565,15.479018056711478
293,7.64198926981712,1.4142135623730951,3.22490309931942,1.8439088914585775,2.32379000772445,1.6733200530681511,6.81175454637056,11.454256850621082
294,6.465291950097845,2.0,3.22490309931942,4.560701700396552,7.211102550927978,5.118593556827891,3.1937438845342623,16.625281952496323
295,21.95905280288747,1.7320508075688772,2.3664319132398464,2.6076809620810595,9.219544457292887,5.5677643628300215,4.669047011971501,9.715966241192895
296,28.71236667361296,2.280350850198276,2.04939015319192,4.6475800154489,6.082762530298219,2.1908902300206643,4.47213595499958,15.754364474646383
297,18.433664855367205,4.604345773288535,1.7888543819998317,4.732863826479693,6.164414002968976,7.523297149521611,1.5491933384829668,10.449880382090505
298,11.77285012220915,5.366563145999495,2.1908902300206643,2.8284271247461903,5.272570530585627,4.774934554525329,4.9396356140913875,15.968719422671311
299,11.991663771137015,6.016643582596529,1.61245154965971,6.618156843109719,6.928203230275509,3.492849839314596,5.60357029044876,9.16515138991168
300,2.4899799195977463,3.6606010435446255,2.0,6.928203230275509,5.585696017507576,2.3664319132398464,3.7682887362833544,11.489125293076057
301,15.407790237409127,5.422176684690384,3.0983866769659336,13.16054710108968,13.475904422338413,7.681145747868608,1.6733200530681511,5.329165037789691
302,31.622776601683793,5.0990195135927845,1.8439088914585775,9.838699100999074,20.961870145576228,5.385164807134504,0.8944271909999159,5.329165037789691
303,11.61895003862225,5.0,2.0,6.0,13.408952233489387,3.1622776601683795,4.449719092257398,23.173260452512935
304,11.0,2.0,1.2649110640673518,0.6324555320336759,4.8166378315169185,3.82099463490856,3.5777087639996634,12.553883861180172
305,35.43162429243119,3.5496478698597698,2.3664319132398464,2.5298221281347035,7.389181280764467,2.280350850198276,1.8973665961010275,10.526157893552615
306,11.269427669584644,0.7745966692414834,1.4832396974191326,12.83744522870497,5.830951894845301,7.4565407529228995,4.898979485566356,8.590692637965812
307,12.30447073221762,2.280350850198276,1.0,3.3466401061363023,5.440588203494177,2.1447610589527217,6.913754406977442,13.2664991614216
308,10.816653826391969,2.7202941017470885,3.1622776601683795,3.22490309931942,6.4031242374328485,4.09878030638384,4.33589667773576,11.126544836560898
309,18.51485889765299,6.48074069840786,1.7888543819998317,4.312771730569565,2.7202941017470885,4.979959839195493,2.1447610589527217,10.99090533122727
310,4.795831523312719,2.0,0.7745966692414834,1.0,3.1937438845342623,3.1937438845342623,4.8166378315169185,13.718600511714014
311,17.86057109949175,5.215361924162119,1.4832396974191326,2.8635642126552705,4.959838707054898,1.4832396974191326,8.648699324175862,12.609520212918492
312,12.743625857659193,3.40587727318528,1.4832396974191326,2.449489742783178,3.492849839314596,2.04939015319192,6.708203932499369,7.912016177940993
313,8.037412518964047,1.4832396974191326,2.6076809620810595,1.1832159566199232,1.1832159566199232,2.23606797749979,3.5496478698597698,16.31563667161046
314,4.58257569495584,2.8635642126552705,0.6324555320336759,1.8973665961010275,5.89915248150105,5.674504383644443,10.507140429250958,6.496152707564686
315,10.119288512538814,3.3466401061363023,3.40587727318528,8.579044235810887,3.605551275463989,6.511528238439882,1.0,8.831760866327848
316,23.306651411131543,2.4899799195977463,1.7888543819998317,2.0,4.538722287164087,3.63318042491699,8.683317338436964,13.107249902248755
317,13.206059215375342,4.312771730569565,1.2649110640673518,7.042726744663604,9.797958971132712,4.8373546489791295,3.3466401061363023,5.118593556827891
318,13.069047402163633,3.605551275463989,0.8944271909999159,4.898979485566356,5.138093031466052,1.4832396974191326,8.648699324175862,16.46207763315433
319,15.039946808416577,2.756809750418044,2.04939015319192,7.496665925596525,11.40175425099138,1.61245154965971,3.3466401061363023,31.949960876345372
320,6.526867548832288,1.8973665961010275,1.0,7.576278769950324,7.797435475847171,5.744562646538029,0.6324555320336759,13.65283853270081
321,8.910667763978186,1.6733200530681511,2.0,10.344080432788601,9.055385138137417,6.841052550594828,4.8166378315169185,10.392304845413264
322,10.315037566582102,4.0743097574926725,3.8987177379235853,9.622889378975527,7.92464510246358,5.458937625582473,7.211102550927978,4.123105625617661
323,21.227340860315028,6.0,2.1908902300206643,5.5677643628300215,10.207840124139876,2.0,7.042726744663604,7.429670248402684
324,14.560219778561036,2.280350850198276,2.4083189157584592,5.882176467941097,12.206555615733702,7.321202087089251,10.324727599312245,11.322543883774529
325,19.411336893681487,1.9493588689617927,1.9493588689617927,4.266145801540309,8.18535277187245,5.830951894845301,7.3484692283495345,11.8911731969558
326,14.359665734271115,3.714835124201342,1.5491933384829668,3.5777087639996634,5.692099788303083,9.20869154657707,6.587867636800241,7.987490219086343
327,5.865151319446072,4.9396356140913875,3.22490309931942,9.23038460737146,20.464603587658374,6.164414002968976,2.3664319132398464,16.09347693943108
328,8.19756061276768,4.560701700396552,1.2649110640673518,1.61245154965971,4.219004621945797,5.865151319446072,3.7416573867739413,4.494441010848846
329,22.768399153212332,2.0976176963403033,2.23606797749979,2.1447610589527217,3.714835124201342,4.979959839195493,3.714835124201342,7.835815209663893
330,10.344080432788601,3.924283374069717,2.23606797749979,3.0983866769659336,12.441864811996632,4.516635916254486,10.08959860450355,6.180614856144977
331,8.820430828479978,3.1622776601683795,2.0,0.6324555320336759,4.516635916254486,2.04939015319192,4.959838707054898,19.110206696946005
332,3.714835124201342,2.6832815729997477,1.0954451150103321,2.569046515733026,5.366563145999495,1.4832396974191326,2.756809750418044,24.843510218968657
333,12.149074038789951,1.2649110640673518,2.569046515733026,2.5298221281347035,7.211102550927978,4.626013402488151,6.340346993658944,4.774934554525329
334,6.587867636800241,2.7202941017470885,3.40587727318528,1.61245154965971,4.732863826479693,4.47213595499958,6.131883886702357,17.36663467687393
335,25.953805116013335,6.648308055437865,1.7888543819998317,1.6733200530681511,6.557438524302,3.22490309931942,3.255764119219941,22.140460699813815
336,13.935566009315876,5.079370039680118,2.32379000772445,4.8166378315169185,13.30413469565007,2.6832815729997477,4.449719092257398,11.269427669584644
337,27.720028860013837,3.1937438845342623,1.6733200530681511,3.255764119219941,6.7379522111692065,8.508818954473059,5.513619500836088,16.260381299342274
338,19.884667460131183,3.3763886032268267,1.2649110640673518,1.61245154965971,5.727128425310541,4.147288270665544,3.22490309931942,13.63084736911099
339,11.687600266949584,2.9664793948382653,0.6324555320336759,11.0,6.324555320336759,5.0,4.69041575982343,12.239281024635394
340,16.217274740226856,3.1937438845342623,2.6832815729997477,6.511528238439882,7.58946638440411,4.774934554525329,3.3466401061363023,11.687600266949584
341,19.198958305074783,3.0,2.4083189157584592,4.0743097574926725,5.674504383644443,4.774934554525329,1.2649110640673518,9.50789145920377
342,28.743694960808362,6.29285308902091,1.0954451150103321,3.492849839314596,12.149074038789951,2.1908902300206643,4.753945729601885,15.388307249337076
343,23.36236289419373,2.0,1.7888543819998317,2.23606797749979,4.123105625617661,1.0,5.385164807134504,4.0
344,9.808159868191384,1.5491933384829668,1.5491933384829668,5.531726674375733,11.636150566231086,6.371812928829597,3.1937438845342623,3.1622776601683795
345,8.67179335547152,2.5298221281347035,0.8944271909999159,3.22490309931942,7.628892449104261,8.988882021697693,4.669047011971501,7.429670248402684
346,12.09958676980334,1.4142135623730951,3.03315017762062,4.919349550499537,13.70401401050072,6.663332499583072,5.585696017507576,10.315037566582102
347,9.219544457292887,5.0,3.1937438845342623,7.211102550927978,14.0,1.0954451150103321,4.024922359499621,8.23407554009556
348,9.273618495495704,4.024922359499621,0.7745966692414834,1.8439088914585775,10.16857905510893,9.549869109050658,3.63318042491699,8.438009243891594
349,25.12369399590753,4.626013402488151,1.1832159566199232,3.924283374069717,8.62554346113913,5.019960159204453,5.310367218940701,9.602083107326242
350,10.488088481701515,2.6076809620810595,1.7888543819998317,3.4351128074635335,5.310367218940701,3.40587727318528,9.305912099305473,7.14142842854285
351,26.076809620810597,4.33589667773576,1.8973665961010275,2.6457513110645907,5.347896782848375,5.709640969448079,3.687817782917155,4.0
352,7.155417527999327,3.22490309931942,1.4142135623730951,2.6457513110645907,7.848566748139434,4.753945729601885,7.416198487095663,13.16054710108968
353,13.65283853270081,4.669047011971501,1.2649110640673518,3.22490309931942,10.564090116995406,2.7202941017470885,6.6332495807108,11.704699910719626
354,15.517731793016658,3.03315017762062,1.61245154965971,4.753945729601885,13.251415018781957,6.260990336999411,1.7888543819998317,9.055385138137417
355,15.20526224699857,3.4351128074635335,2.32379000772445,2.932575659723036,9.09945053286186,2.280350850198276,3.03315017762062,13.820274961085254
356,16.649324310613927,3.521363372331802,1.9493588689617927,3.7682887362833544,7.912016177940993,4.516635916254486,4.857983120596447,12.091319200153471
357,9.011104260855047,2.4899799195977463,1.7320508075688772,3.847076812334269,9.2951600308978,2.5298221281347035,3.7682887362833544,9.602083107326242
358,31.965606517005117,5.176871642217914,3.286335345030997,1.2649110640673518,6.870225614927067,1.2649110640673518,5.291502622129181,14.601369798755183
359,9.338094023943002,2.4899799195977463,2.8284271247461903,4.58257569495584,15.15915564930976,12.505998560690786,3.9496835316262997,5.674504383644443
360,14.979986648859205,3.82099463490856,1.9493588689617927,1.7888543819998317,2.6076809620810595,4.959838707054898,7.771743691090179,7.280109889280518
361,8.258329128825032,1.2649110640673518,2.6457513110645907,5.215361924162119,12.735776379946374,3.605551275463989,4.898979485566356,12.02497401244593
362,5.310367218940701,2.04939015319192,2.6457513110645907,5.761944116355173,4.774934554525329,6.465291950097845,7.37563556583431,3.82099463490856
363,9.939818911831342,4.049691346263317,1.7888543819998317,4.560701700396552,7.8230428862431785,4.795831523312719,12.37739875741264,2.6457513110645907
364,11.874342087037917,5.458937625582473,0.8944271909999159,5.882176467941097,6.2289646009589745,1.61245154965971,4.494441010848846,12.751470503436064
365,10.807404868885037,3.22490309931942,2.6457513110645907,7.085195833567341,7.429670248402684,2.32379000772445,1.0,17.389652095427326
366,15.093044755780724,1.1832159566199232,1.6733200530681511,1.61245154965971,4.449719092257398,2.3664319132398464,7.0,5.9833101206606365
367,12.609520212918492,1.7888543819998317,1.4142135623730951,3.924283374069717,5.477225575051661,2.0,4.979959839195493,7.758865896508329
368,18.022208521710095,1.8439088914585775,1.4832396974191326,0.6324555320336759,4.69041575982343,1.8439088914585775,2.4083189157584592,10.430723848324238
369,12.47397290361014,3.847076812334269,2.569046515733026,1.6733200530681511,2.280350850198276,2.4083189157584592,6.418722614352485,14.219704638282751
370,4.732863826479693,5.0,0.6324555320336759,2.0,2.6457513110645907,10.315037566582102,14.233762678926468,5.385164807134504
371,5.621387729022079,1.4142135623730951,1.3416407864998738,1.9493588689617927,3.3466401061363023,2.932575659723036,13.007690033207279,10.63014581273465
372,6.855654600401044,3.40587727318528,1.5491933384829668,1.6733200530681511,6.496152707564686,7.224956747275377,6.180614856144977,24.803225596683994
373,5.2345009313209605,1.9493588689617927,1.6733200530681511,1.0954451150103321,7.54983443527075,7.523297149521611,3.521363372331802,6.971370023173351
374,9.57078889120432,2.0976176963403033,3.3466401061363023,3.3466401061363023,2.7202941017470885,1.4142135623730951,2.932575659723036,28.722813232690143
375,8.330666239863412,1.7888543819998317,1.1832159566199232,2.3664319132398464,8.148619514985345,4.1952353926806065,3.286335345030997,6.81175454637056
376,9.6850400102426,3.687817782917155,1.0954451150103321,2.449489742783178,8.136338242723197,3.687817782917155,4.626013402488151,3.9496835316262997
377,14.25482374496437,3.4351128074635335,1.61245154965971,2.280350850198276,7.389181280764467,3.687817782917155,5.9833101206606365,11.436782764396638
378,27.33495930123182,4.560701700396552,0.6324555320336759,5.118593556827891,7.429670248402684,1.8973665961010275,3.492849839314596,14.142135623730951
379,19.804039991880444,8.579044235810887,4.09878030638384,5.966573556070519,5.89915248150105,6.44980619863884,2.5298221281347035,8.35463942968217
380,28.316073174082593,5.9833101206606365,2.32379000772445,2.1908902300206643,7.416198487095663,4.560701700396552,6.899275324264136,20.37154878746336
381,7.92464510246358,2.32379000772445,1.9493588689617927,3.7416573867739413,7.496665925596525,5.458937625582473,6.618156843109719,13.168143377105217
382,6.276941930590086,4.358898943540674,2.5298221281347035,2.8635642126552705,7.0,2.1447610589527217,1.2649110640673518,17.134759992483115
383,12.157302332343306,1.7888543819998317,2.5298221281347035,3.687817782917155,5.932958789676531,2.8635642126552705,1.6733200530681511,13.92838827718412
384,8.246211251235321,1.9493588689617927,1.2649110640673518,2.898275349237888,7.127411872482185,4.959838707054898,1.4832396974191326,18.477012745571184
385,3.521363372331802,4.0,1.6733200530681511,3.255764119219941,5.059644256269407,2.449489742783178,5.059644256269407,12.609520212918492
386,9.02219485491197,3.8987177379235853,1.4142135623730951,2.7202941017470885,6.648308055437865,3.0983866769659336,1.9493588689617927,6.06630035524124
387,5.176871642217914,1.9493588689617927,1.0954451150103321,2.6832815729997477,8.988882021697693,2.9664793948382653,4.0,4.0743097574926725
388,6.2289646009589745,4.560701700396552,1.7888543819998317,5.848076606885378,9.23038460737146,7.655063683601855,2.04939015319192,5.196152422706632
389,6.131883886702357,2.7202941017470885,2.04939015319192,1.2649110640673518,3.255764119219941,11.687600266949584,2.0,11.313708498984761
390,10.353743284435827,3.03315017762062,1.9493588689617927,2.9664793948382653,6.526867548832288,2.0,2.4083189157584592,12.751470503436064
391,8.508818954473059,2.0,1.4142135623730951,2.932575659723036,5.89915248150105,8.48528137423857,9.38083151964686,14.879516121164693
392,10.207840124139876,2.280350850198276,1.2649110640673518,2.898275349237888,6.371812928829597,4.9396356140913875,6.356099432828281,17.389652095427326
393,9.889388252060893,1.61245154965971,1.61245154965971,6.465291950097845,19.743353311937668,4.427188724235731,1.1832159566199232,9.348796714016196
394,5.9833101206606365,0.6324555320336759,1.4832396974191326,5.079370039680118,14.366627996854376,6.244997998398398,3.687817782917155,5.882176467941097
395,11.55854662143991,3.22490309931942,1.6733200530681511,4.47213595499958,18.10524785801067,4.47213595499958,4.898979485566356,18.852055590836773
396,12.239281024635394,3.924283374069717,1.1832159566199232,4.266145801540309,11.627553482998906,1.0,5.709640969448079,10.99090533122727
397,13.289093272304171,3.6606010435446255,1.2649110640673518,5.9833101206606365,6.985699678629192,4.33589667773576,1.4142135623730951,12.345039489608771
398,21.702534414210707,6.016643582596529,2.280350850198276,3.0,9.06642156531451,5.291502622129181,5.422176684690384,13.74772708486752
399,12.239281024635394,4.0,2.6457513110645907,5.176871642217914,14.127986409959489,3.1304951684997055,5.674504383644443,13.183322798141598
400,9.1104335791443,7.0,2.0,7.962411694957753,6.648308055437865,4.123105625617661,7.974960814950754,12.239281024635394
401,25.973062969160953,3.1622776601683795,2.569046515733026,4.560701700396552,5.366563145999495,4.049691346263317,4.381780460041329,21.17545749210628
402,13.70401401050072,3.4641016151377544,1.3416407864998738,4.494441010848846,12.649110640673518,7.416198487095663,4.0743097574926725,10.686440005914037
403,26.43482551483932,8.637129152675673,5.60357029044876,6.06630035524124,10.927030703718188,5.079370039680118,4.669047011971501,17.041126723312633
404,11.144505372604026,5.253570214625479,2.1908902300206643,6.957010852370434,10.75174404457249,7.655063683601855,6.2289646009589745,5.291502622129181
405,7.8230428862431785,4.795831523312719,1.61245154965971,3.22490309931942,13.512956745287095,2.3664319132398464,8.037412518964047,22.960836221705865
406,6.164414002968976,1.8439088914585775,1.4832396974191326,3.286335345030997,10.89954127475097,9.412757300600074,5.9833101206606365,15.290519938837921
407,6.212889826803627,2.3664319132398464,2.6457513110645907,3.8987177379235853,3.255764119219941,7.848566748139434,0.8944271909999159,18.270194306574847
408,18.17690842800282,1.8973665961010275,0.7745966692414834,4.427188724235731,10.564090116995406,3.4351128074635335,4.898979485566356,7.085195833567341
409,16.167869371070513,2.0976176963403033,1.0,5.513619500836088,9.539392014169456,6.913754406977442,6.913754406977442,12.10784869413225
410,25.09183134009951,4.626013402488151,1.1832159566199232,4.024922359499621,8.209750300709517,4.753945729601885,3.794733192202055,10.198039027185569
411,12.157302332343306,1.7888543819998317,1.3416407864998738,2.1908902300206643,2.23606797749979,3.0983866769659336,11.081516141756055,11.584472366059664
412,8.258329128825032,6.099180272790763,2.23606797749979,3.4351128074635335,7.0992957397195395,3.22490309931942,4.0,7.523297149521611
413,5.2345009313209605,3.22490309931942,3.1937438845342623,4.33589667773576,7.429670248402684,3.794733192202055,2.756809750418044,11.480418110852932
414,9.612491872558333,3.1622776601683795,0.7745966692414834,4.427188724235731,5.422176684690384,2.4083189157584592,1.0,23.481907929297396
415,8.378544026261364,2.932575659723036,2.32379000772445,4.8373546489791295,4.669047011971501,4.69041575982343,4.0743097574926725,12.214745187681975
416,10.44030650891055,2.04939015319192,2.6457513110645907,2.6832815729997477,10.807404868885037,4.0743097574926725,3.1937438845342623,9.715966241192895
417,7.334848328356899,4.8166378315169185,3.1622776601683795,3.1622776601683795,3.1622776601683795,2.6457513110645907,1.4832396974191326,7.416198487095663
418,10.119288512538814,2.5298221281347035,2.1908902300206643,3.847076812334269,12.165525060596439,2.23606797749979,2.280350850198276,9.305912099305473
419,18.601075237738275,2.0,2.32379000772445,3.4351128074635335,1.8973665961010275,2.449489742783178,3.521363372331802,12.091319200153471
420,5.932958789676531,2.9664793948382653,1.6733200530681511,4.427188724235731,5.9833101206606365,1.4832396974191326,10.917875251164945,9.848857801796104
421,18.46076921474292,4.171330722922842,2.32379000772445,5.176871642217914,3.8987177379235853,3.3763886032268267,9.486832980505138,12.049896265113654
422,14.449913494550755,5.0990195135927845,0.8944271909999159,3.687817782917155,9.412757300600074,3.4351128074635335,4.266145801540309,9.909591313469996
423,13.564659966250536,3.40587727318528,2.0,3.714835124201342,10.207840124139876,8.294576541331088,2.449489742783178,10.507140429250958
424,18.852055590836773,0.6324555320336759,1.6733200530681511,1.2649110640673518,7.861297602813418,9.391485505499118,3.847076812334269,10.227414140436476
425,10.554619841567009,2.6457513110645907,1.0954451150103321,1.6733200530681511,5.176871642217914,8.67179335547152,3.9496835316262997,11.8911731969558
426,8.19756061276768,2.6076809620810595,2.756809750418044,3.794733192202055,10.844353369380768,2.932575659723036,4.049691346263317,12.767145334803704
427,15.459624833740307,2.756809750418044,2.4083189157584592,6.942621983083913,6.708203932499369,3.1622776601683795,6.841052550594828,15.633297796690243
428,5.932958789676531,3.9496835316262997,0.8944271909999159,4.0743097574926725,6.496152707564686,11.063453348751466,5.157518783291051,11.60172400981854
429,5.674504383644443,1.4142135623730951,2.1447610589527217,2.4899799195977463,8.660254037844387,2.4899799195977463,8.508818954473059,7.810249675906654
430,19.250974001333024,4.1952353926806065,1.7888543819998317,1.2649110640673518,2.5298221281347035,2.6076809620810595,4.959838707054898,13.76226725507102
431,9.818350166906862,3.847076812334269,1.7320508075688772,2.756809750418044,8.854377448471462,1.8973665961010275,9.622889378975527,8.62554346113913
432,25.499019588995967,1.6733200530681511,1.2649110640673518,3.924283374069717,8.613942186943213,7.92464510246358,10.564090116995406,15.12613632095123
433,9.757048734120374,2.23606797749979,1.7888543819998317,2.6076809620810595,6.276941930590086,5.196152422706632,12.545915670049755,7.771743691090179
434,12.680693987317888,2.04939015319192,1.2649110640673518,5.585696017507576,3.3466401061363023,1.8439088914585775,8.717797887081348,11.428035701729321
435,5.0990195135927845,1.8439088914585775,2.04939015319192,1.9493588689617927,4.898979485566356,1.0,7.58946638440411,4.024922359499621
436,20.63492185592182,0.0,2.04939015319192,1.3416407864998738,2.8635642126552705,2.32379000772445,3.03315017762062,4.147288270665544
437,15.918542646863123,1.2649110640673518,1.0,4.494441010848846,13.856406460551018,2.8284271247461903,6.496152707564686,11.15347479487895
438,11.61895003862225,4.33589667773576,3.1937438845342623,7.0,4.33589667773576,2.6832815729997477,5.0,9.879271228182775
439,7.92464510246358,2.0976176963403033,1.4832396974191326,3.714835124201342,8.414273587185052,5.813776741499453,5.403702434442518,13.251415018781957
440,13.769531582446804,4.857983120596447,1.6733200530681511,3.255764119219941,4.404543109109048,5.727128425310541,3.872983346207417,17.308957218735046
441,19.570385790780925,5.019960159204453,2.792848008753788,4.147288270665544,8.024961059095553,7.183313998427188,6.767569726275452,8.160882305241266
442,16.11831256676703,1.9493588689617927,2.6076809620810595,3.492849839314596,8.854377448471462,3.1622776601683795,4.8166378315169185,11.764352935882194
443,10.881176406988354,6.752777206453653,2.4083189157584592,1.7888543819998317,12.09958676980334,2.7202941017470885,4.8166378315169185,16.13071604114337
444,34.161381705077446,5.291502622129181,2.32379000772445,1.6733200530681511,3.872983346207417,1.8973665961010275,13.914021704740868,12.239281024635394
445,12.091319200153471,3.255764119219941,2.7202941017470885,11.730302638892145,7.9498427657407165,4.58257569495584,5.059644256269407,16.14930339054908
446,27.35324478009876,4.312771730569565,2.5298221281347035,4.2895221179054435,10.344080432788601,2.23606797749979,5.848076606885378,12.091319200153471
447,38.812369162420374,6.276941930590086,3.794733192202055,2.9664793948382653,9.23038460737146,4.626013402488151,10.478549517943788,20.721969018411354
448,22.013632140108093,9.989994994993742,2.4899799195977463,3.0,5.039841267341661,4.266145801540309,7.64198926981712,18.82020191177555
449,11.781341180018513,1.7320508075688772,1.6733200530681511,4.0,1.7888543819998317,4.147288270665544,8.012490249604053,9.17605579756357
450,25.663203229526903,3.22490309931942,0.6324555320336759,3.82099463490856,2.0,10.936178491593852,7.874007874011811,6.276941930590086
451,19.844394674567425,1.7888543819998317,1.6733200530681511,7.183313998427188,5.513619500836088,8.378544026261364,9.869143833180262,7.8230428862431785
452,21.118712081942874,2.932575659723036,0.7745966692414834,3.605551275463989,3.0983866769659336,4.427188724235731,7.280109889280518,12.609520212918492
453,4.404543109109048,5.779273310719955,2.7202941017470885,11.0,4.049691346263317,3.03315017762062,9.241212041718338,21.83575050232989
454,7.962411694957753,5.059644256269407,2.932575659723036,4.560701700396552,2.4083189157584592,2.280350850198276,10.421132376090421,11.322543883774529
455,8.318653737234168,1.8973665961010275,2.756809750418044,16.994116628998402,11.436782764396638,3.0983866769659336,4.427188724235731,9.444575162494075
456,26.26404386228442,2.32379000772445,1.3416407864998738,3.1937438845342623,2.23606797749979,3.687817782917155,6.971370023173351,11.126544836560898
457,9.423375191511797,1.6733200530681511,1.4832396974191326,4.242640687119285,6.016643582596529,4.8166378315169185,7.155417527999327,4.626013402488151
458,10.198039027185569,1.9493588689617927,1.4142135623730951,3.5496478698597698,6.942621983083913,2.04939015319192,2.32379000772445,5.458937625582473
459,4.427188724235731,2.5298221281347035,0.8944271909999159,5.0,7.745966692414834,1.0,3.9749213828703582,5.882176467941097
460,14.498275759551547,3.521363372331802,0.7745966692414834,2.756809750418044,6.0,12.680693987317888,7.563068160475615,19.3183850256692
461,5.727128425310541,3.1937438845342623,0.6324555320336759,2.280350850198276,3.63318042491699,2.4083189157584592,5.422176684690384,22.698017534577772
462,28.635642126552707,1.9493588689617927,1.0954451150103321,3.4351128074635335,6.782329983125268,3.22490309931942,4.919349550499537,8.258329128825032
463,6.6932802122726045,2.4083189157584592,1.6733200530681511,2.9664793948382653,10.545141061171254,4.09878030638384,5.329165037789691,15.026643005009468
464,10.908712114635714,2.7202941017470885,2.1908902300206643,6.767569726275452,6.387487769068525,2.569046515733026,2.7202941017470885,16.31563667161046
465,14.669696656713798,3.605551275463989,2.280350850198276,5.079370039680118,3.872983346207417,3.714835124201342,2.8284271247461903,12.074767078498866
466,9.08845421400141,4.33589667773576,1.4832396974191326,5.2345009313209605,13.243866504914644,10.862780491200215,5.761944116355173,7.224956747275377
467,9.497368056467012,3.7416573867739413,1.4832396974191326,8.1117199162693,12.860793132618221,1.6733200530681511,3.687817782917155,5.118593556827891
468,12.743625857659193,1.61245154965971,1.8973665961010275,5.019960159204453,6.099180272790763,12.577758146824099,4.381780460041329,4.69041575982343
469,17.429859437184227,2.569046515733026,1.0,5.744562646538029,8.06225774829855,3.521363372331802,9.186947262284681,8.087026647662292
470,10.059821071967434,2.23606797749979,0.8944271909999159,8.160882305241266,9.602083107326242,6.308724118235001,9.033271832508971,10.79814798935447
471,16.558985476169727,3.1937438845342623,2.04939015319192,1.8973665961010275,2.7202941017470885,2.449489742783178,9.818350166906862,10.862780491200215
472,15.811388300841896,2.8284271247461903,1.7320508075688772,2.8284271247461903,6.44980619863884,3.521363372331802,5.656854249492381,15.323185047502363
473,4.795831523312719,4.427188724235731,2.1908902300206643,2.04939015319192,5.458937625582473,1.2649110640673518,4.024922359499621,12.601587201618692
474,9.0,3.847076812334269,2.756809750418044,3.1937438845342623,6.082762530298219,3.521363372331802,1.3416407864998738,9.316651759081692
475,18.313929125122222,4.404543109109048,2.5298221281347035,17.34358671094304,3.0983866769659336,3.255764119219941,6.511528238439882,7.655063683601855
476,13.408952233489387,5.215361924162119,2.4083189157584592,6.663332499583072,16.976454282328802,6.884765791223402,1.6733200530681511,5.5677643628300215
477,15.459624833740307,1.4832396974191326,1.0,3.847076812334269,8.270429251254134,3.9496835316262997,0.8944271909999159,9.316651759081692
478,10.954451150103322,2.9664793948382653,1.1832159566199232,4.312771730569565,11.233877335986895,3.3763886032268267,7.197221686178632,15.433729296576379
479,19.483326204732087,4.09878030638384,3.4351128074635335,2.32379000772445,6.324555320336759,12.083045973594572,2.756809750418044,17.7313282074412
480,10.401922899156675,5.157518783291051,3.3466401061363023,2.0976176963403033,11.081516141756055,3.492849839314596,4.47213595499958,13.423859355639868
481,15.7797338380595,1.8439088914585775,1.8439088914585775,1.6733200530681511,2.280350850198276,1.7888543819998317,6.971370023173351,7.758865896508329
482,31.575306807693888,4.049691346263317,0.4472135954999579,2.0976176963403033,7.0,4.123105625617661,3.7416573867739413,20.847062143141418
483,15.033296378372908,6.663332499583072,3.847076812334269,5.744562646538029,5.9833101206606365,5.118593556827891,2.6457513110645907,15.290519938837921
484,18.09419796509367,2.932575659723036,0.7745966692414834,1.9493588689617927,5.253570214625479,3.8987177379235853,11.081516141756055,3.9496835316262997
485,29.400680264238783,4.242640687119285,1.4832396974191326,4.69041575982343,7.416198487095663,2.449489742783178,15.80506248010428,8.330666239863412
486,7.0285133563222315,2.4083189157584592,1.7888543819998317,2.7202941017470885,5.059644256269407,2.3664319132398464,2.0,20.808652046684813
487,10.08959860450355,3.8987177379235853,1.61245154965971,1.8973665961010275,3.5777087639996634,4.266145801540309,3.4351128074635335,4.604345773288535
488,10.353743284435827,6.496152707564686,1.4142135623730951,10.16857905510893,8.94427190999916,3.0659419433511785,5.176871642217914,17.58408371226661
489,13.175735273600482,1.4832396974191326,0.7745966692414834,3.687817782917155,9.497368056467012,4.427188724235731,9.969954864491614,15.754364474646383
490,16.00624877977348,3.714835124201342,1.7888543819998317,1.2649110640673518,2.3664319132398464,1.4832396974191326,4.358898943540674,15.504837954651444
491,15.323185047502363,4.0743097574926725,2.23606797749979,3.7416573867739413,5.422176684690384,0.8944271909999159,12.049896265113654,4.404543109109048
492,12.93058390019569,4.753945729601885,0.0,6.826419266350405,10.430723848324238,5.157518783291051,4.049691346263317,9.848857801796104
493,11.216059914247962,3.687817782917155,2.32379000772445,3.5496478698597698,4.732863826479693,1.7888543819998317,13.48332303254654,11.865917579353061
494,15.626899884494044,3.1937438845342623,0.6324555320336759,3.3466401061363023,4.147288270665544,2.756809750418044,7.280109889280518,20.566963801203133
495,7.912016177940993,3.1937438845342623,0.7745966692414834,0.6324555320336759,5.848076606885378,3.286335345030997,2.569046515733026,14.092551223962253
496,8.35463942968217,3.1304951684997055,1.3416407864998738,6.244997998398398,2.0,0.6324555320336759,4.898979485566356,13.274034804836093
497,10.421132376090421,3.0659419433511785,1.3416407864998738,9.143303560529969,10.029955134495866,4.732863826479693,5.422176684690384,11.575836902790225
498,8.07465169527454,2.0976176963403033,1.6733200530681511,1.5491933384829668,5.272570530585627,6.841052550594828,3.0,3.924283374069717
499,11.135528725660043,2.6832815729997477,2.1908902300206643,10.844353369380768,3.4351128074635335,1.8973665961010275,4.669047011971501,4.0
500,22.436577279077127,4.494441010848846,1.2649110640673518,4.516635916254486,6.572670690061994,6.465291950097845,2.32379000772445,4.1952353926806065
501,14.724129855444769,1.0,1.61245154965971,4.427188724235731,6.131883886702357,3.847076812334269,9.899494936611665,4.732863826479693
502,10.12916580968048,0.8944271909999159,2.04939015319192,8.402380615040002,3.286335345030997,4.878524367060187,6.752777206453653,14.170391667134682
503,28.52367437761131,0.7745966692414834,0.6324555320336759,3.3466401061363023,2.5298221281347035,4.8166378315169185,3.5777087639996634,10.69579356569675
504,19.24058211177614,1.61245154965971,1.5491933384829668,1.6733200530681511,2.0,1.61245154965971,3.1937438845342623,11.189280584559492
505,24.803225596683994,3.521363372331802,3.847076812334269,2.7202941017470885,4.494441010848846,7.113367697511496,4.538722287164087,7.224956747275377
506,10.392304845413264,2.3664319132398464,1.2649110640673518,2.932575659723036,4.219004621945797,2.4083189157584592,4.8166378315169185,9.2951600308978
507,11.567194992737004,1.8439088914585775,1.6733200530681511,2.9664793948382653,2.5298221281347035,2.4083189157584592,5.0990195135927845,4.753945729601885
508,14.601369798755183,5.60357029044876,1.2649110640673518,2.898275349237888,4.774934554525329,3.714835124201342,7.974960814950754,9.518403227432634
509,17.227884373886425,2.23606797749979,2.0,5.513619500836088,9.777525249264253,5.9833101206606365,3.714835124201342,7.937253933193772
510,16.272676485446393,2.1447610589527217,1.61245154965971,4.711687595755898,13.992855319769443,2.8284271247461903,5.118593556827891,10.401922899156675
511,16.074825037928093,1.4832396974191326,1.5491933384829668,5.549774770204643,8.402380615040002,11.523888232710346,7.6681158050723255,12.704329970525798
512,22.253089673121796,2.449489742783178,3.22490309931942,8.899438184514796,8.637129152675673,3.82099463490856,1.61245154965971,6.6932802122726045
513,10.507140429250958,3.8987177379235853,4.404543109109048,12.545915670049755,5.60357029044876,2.0,13.091982279242513,12.457929201917949
514,15.145956556124146,3.1304951684997055,2.8635642126552705,12.821856339859686,9.284395510748128,5.366563145999495,3.1937438845342623,10.59245014149229
515,10.779610382569492,1.7320508075688772,1.0954451150103321,3.521363372331802,2.23606797749979,6.723094525588644,2.1447610589527217,10.237187113655782
516,5.272570530585627,3.3466401061363023,1.4832396974191326,3.0,2.9664793948382653,1.7888543819998317,3.22490309931942,3.521363372331802
517,18.69759342803239,4.795831523312719,2.4083189157584592,15.323185047502363,10.807404868885037,6.942621983083913,1.3416407864998738,9.889388252060893
518,22.289010745208053,4.024922359499621,2.32379000772445,16.673332000533065,12.033287165193059,6.115553940568262,4.669047011971501,8.79772697916911
519,7.334848328356899,3.3763886032268267,1.8973665961010275,3.605551275463989,3.22490309931942,6.115553940568262,2.04939015319192,5.727128425310541
520,5.656854249492381,2.932575659723036,2.6457513110645907,6.797058187186572,16.29723902997069,7.280109889280518,4.33589667773576,9.16515138991168
521,16.75708805252273,4.626013402488151,2.1447610589527217,2.23606797749979,3.4641016151377544,4.9396356140913875,5.60357029044876,10.526157893552615
522,7.37563556583431,2.4083189157584592,1.61245154965971,2.23606797749979,5.157518783291051,4.669047011971501,7.389181280764467,2.8284271247461903
523,15.937377450509228,3.605551275463989,2.1908902300206643,3.4351128074635335,8.888194417315589,4.09878030638384,5.882176467941097,9.305912099305473
524,7.681145747868608,2.1908902300206643,0.8944271909999159,5.674504383644443,8.590692637965812,2.1908902300206643,11.933147112141038,5.89915248150105
525,6.387487769068525,2.9664793948382653,2.5298221281347035,5.176871642217914,8.899438184514796,6.276941930590086,5.458937625582473,24.839484696748443
526,15.498387012847498,2.04939015319192,1.0954451150103321,9.444575162494075,12.48198702130394,3.3166247903554,4.919349550499537,13.053735097664577
527,9.879271228182775,1.7888543819998317,0.8944271909999159,3.1304951684997055,5.079370039680118,4.0,4.358898943540674,10.16857905510893
528,21.67025611293046,2.756809750418044,2.6076809620810595,5.196152422706632,9.695359714832659,3.6606010435446255,4.774934554525329,7.211102550927978
529,11.61895003862225,4.049691346263317,1.8439088914585775,3.8987177379235853,3.7416573867739413,2.1447610589527217,10.908712114635714,21.707141681944215
530,11.823705003085962,3.6606010435446255,1.0954451150103321,5.310367218940701,6.276941930590086,2.6832815729997477,7.628892449104261,18.72965562950905
531,8.449852069711044,3.0,2.0,3.0659419433511785,5.495452665613635,6.276941930590086,11.738824472663351,8.613942186943213
532,7.655063683601855,2.3664319132398464,2.7202941017470885,4.2895221179054435,6.164414002968976,2.569046515733026,2.8284271247461903,7.54983443527075
533,4.8166378315169185,2.6457513110645907,1.5491933384829668,2.8635642126552705,1.6733200530681511,1.8973665961010275,17.7313282074412,11.549891774384728
534,6.603029607687671,2.1447610589527217,1.3416407864998738,2.04939015319192,2.756809750418044,7.536577472566709,2.932575659723036,9.909591313469996
535,21.340103092534488,2.756809750418044,1.3416407864998738,2.32379000772445,2.32379000772445,1.3416407864998738,8.049844718999243,16.828547174370104
536,7.416198487095663,3.9496835316262997,1.0,4.09878030638384,3.1622776601683795,3.63318042491699,8.099382692526634,25.837956575549857
537,11.60172400981854,3.286335345030997,1.9493588689617927,3.521363372331802,8.246211251235321,7.37563556583431,6.985699678629192,12.345039489608771
538,25.946097972527586,6.603029607687671,0.7745966692414834,1.0,3.521363372331802,4.58257569495584,8.024961059095553,4.049691346263317
539,9.06642156531451,4.669047011971501,2.23606797749979,4.560701700396552,10.963576058932597,2.8635642126552705,1.4832396974191326,6.260990336999411
540,8.763560920082657,2.4083189157584592,0.6324555320336759,1.7888543819998317,4.626013402488151,4.0743097574926725,9.549869109050658,5.385164807134504
541,11.46298390472568,4.147288270665544,2.5298221281347035,8.966604708583958,24.903814968795444,9.154233993076646,4.560701700396552,11.40175425099138
542,20.049937655763422,4.33589667773576,1.61245154965971,11.384199576606166,9.444575162494075,10.936178491593852,4.919349550499537,8.461678320522472
543,23.803361107205006,1.7888543819998317,2.8635642126552705,4.494441010848846,6.870225614927067,2.5298221281347035,3.8987177379235853,6.648308055437865
544,18.989470766717012,3.1937438845342623,1.3416407864998738,2.6457513110645907,8.613942186943213,5.403702434442518,7.835815209663893,15.931101656822104
545,23.765521244020714,2.4083189157584592,2.280350850198276,7.042726744663604,29.593918294136042,8.330666239863412,4.560701700396552,10.178408519999577
546,12.231107881136523,3.847076812334269,2.5298221281347035,12.083045973594572,21.73016336800071,7.5099933422074345,2.4083189157584592,15.57562197795003
547,20.149441679609886,4.69041575982343,0.7745966692414834,4.8166378315169185,11.0,13.183322798141598,4.69041575982343,4.6475800154489
548,8.1117199162693,2.7202941017470885,1.61245154965971,1.4832396974191326,9.38083151964686,3.605551275463989,5.60357029044876,25.803100588882725
549,16.34625339336204,4.753945729601885,1.3416407864998738,4.560701700396552,12.821856339859686,4.8373546489791295,5.157518783291051,15.231546211727817
550,17.66918221084383,4.58257569495584,1.4832396974191326,4.147288270665544,8.694826047713663,5.215361924162119,5.692099788303083,15.880806024884253
551,23.125743231299616,4.604345773288535,1.4832396974191326,2.449489742783178,5.727128425310541,3.924283374069717,6.54217089351845,7.0
552,14.933184523068078,6.148170459575759,2.4083189157584592,2.32379000772445,7.127411872482185,2.932575659723036,6.196773353931867,10.936178491593852
553,24.020824298928627,2.6076809620810595,2.7202941017470885,3.687817782917155,5.440588203494177,4.358898943540674,2.8284271247461903,12.465953633797938
554,9.57078889120432,4.242640687119285,1.0954451150103321,9.132360045464699,6.418722614352485,7.334848328356899,7.416198487095663,18.066543665017942
555,12.759310326189265,2.6457513110645907,0.7745966692414834,3.286335345030997,6.276941930590086,4.024922359499621,6.971370023173351,18.83082579177026
556,21.095023109728988,2.1447610589527217,2.32379000772445,4.919349550499537,7.745966692414834,3.7416573867739413,6.0332412515993425,15.84929020492716
557,23.77393530739074,2.6457513110645907,2.0,5.196152422706632,8.23407554009556,2.932575659723036,6.6332495807108,14.289856542317
558,16.899704139422088,1.61245154965971,2.6076809620810595,2.8635642126552705,10.246950765959598,3.8987177379235853,4.024922359499621,13.935566009315876
559,13.70401401050072,2.4083189157584592,1.0,3.924283374069717,1.8973665961010275,4.494441010848846,12.239281024635394,5.059644256269407
560,39.385276436759966,3.9496835316262997,1.5491933384829668,3.286335345030997,6.767569726275452,3.6606010435446255,2.6457513110645907,6.884765791223402
561,30.341390871217488,1.4832396974191326,1.6733200530681511,2.0976176963403033,2.8284271247461903,4.147288270665544,6.708203932499369,4.147288270665544
562,18.83613548475377,4.9396356140913875,1.4832396974191326,6.985699678629192,2.6076809620810595,5.531726674375733,1.3416407864998738,9.38083151964686
563,21.227340860315028,5.118593556827891,1.4142135623730951,7.628892449104261,3.794733192202055,3.714835124201342,7.835815209663893,8.366600265340756
564,15.767054258801801,3.1304951684997055,0.8944271909999159,3.1937438845342623,5.830951894845301,2.04939015319192,4.0743097574926725,2.1908902300206643
