time,emg1,emg2,emg3,emg4,emg5,emg6,emg7,emg8
0,1.8973665961010275,2.04939015319192,1.4832396974191326,2.792848008753788,10.305338422390601,15.006665185843255,5.347896782848375,7.183313998427188
1,1.61245154965971,1.0954451150103321,1.0,1.9493588689617927,23.50744562899168,14.872793954062566,5.9497899122574065,14.771594362153328
2,2.4083189157584592,2.3664319132398464,1.0954451150103321,1.7888543819998317,7.113367697511496,10.807404868885037,4.049691346263317,4.732863826479693
3,1.8439088914585775,2.0976176963403033,1.61245154965971,1.0,15.543487382180357,5.744562646538029,7.874007874011811,15.57562197795003
4,1.4832396974191326,0.8944271909999159,0.6324555320336759,2.04939015319192,27.752477366894656,9.497368056467012,3.286335345030997,5.2345009313209605
5,1.9493588689617927,1.0,1.0,1.0,21.0,3.847076812334269,3.3466401061363023,9.909591313469996
6,2.6457513110645907,2.6457513110645907,0.7745966692414834,0.7745966692414834,3.492849839314596,8.87693640846886,8.648699324175862,6.371812928829597
7,2.23606797749979,0.7745966692414834,1.1832159566199232,2.6076809620810595,8.037412518964047,26.034592372457073,6.082762530298219,3.492849839314596
8,1.6733200530681511,1.6733200530681511,2.280350850198276,3.22490309931942,13.431306712304652,12.743625857659193,11.189280584559492,7.886697661252142
9,2.449489742783178,2.449489742783178,1.3416407864998738,2.5298221281347035,16.00624877977348,14.879516121164693,3.0,5.2345009313209605
10,1.2649110640673518,1.5491933384829668,0.7745966692414834,1.4142135623730951,14.553350129781116,11.28716084761797,3.4351128074635335,8.637129152675673
11,1.9493588689617927,1.4142135623730951,1.4142135623730951,2.0,37.424590846126826,13.885243966167826,8.221921916437786,13.870832707519762
12,1.5491933384829668,1.8973665961010275,1.0,2.0976176963403033,14.177446878757825,12.13260071048248,3.63318042491699,2.9664793948382653
13,1.0,1.8439088914585775,0.8944271909999159,2.1447610589527217,20.707486568871655,8.79772697916911,10.315037566582102,7.694153624668538
14,2.9664793948382653,2.6457513110645907,3.4351128074635335,1.8439088914585775,13.046072205840346,11.198214143335536,8.414273587185052,5.89915248150105
15,1.8439088914585775,0.4472135954999579,2.0,0.8944271909999159,6.06630035524124,16.01873902652765,6.985699678629192,9.38083151964686
16,2.932575659723036,2.23606797749979,1.0954451150103321,1.2649110640673518,7.321202087089251,12.181953866272849,4.774934554525329,9.560334722173696
17,1.0954451150103321,1.8973665961010275,1.4142135623730951,1.9493588689617927,12.853015210447703,10.178408519999577,5.0990195135927845,3.82099463490856
18,1.0,1.6733200530681511,1.7888543819998317,4.711687595755898,17.504285189632853,6.099180272790763,6.0332412515993425,2.932575659723036
19,2.0,1.0954451150103321,2.0,1.4832396974191326,10.08959860450355,14.422205101855956,2.6457513110645907,7.280109889280518
20,2.0976176963403033,1.2649110640673518,2.0,2.0976176963403033,12.860793132618221,6.180614856144977,2.932575659723036,10.0
21,1.0,1.61245154965971,0.7745966692414834,1.4832396974191326,14.035668847618199,12.735776379946374,4.857983120596447,3.794733192202055
22,1.61245154965971,1.1832159566199232,0.8944271909999159,1.4832396974191326,17.977764043395386,25.934532962827767,9.402127418834526,4.0
23,3.1304951684997055,2.0,2.1447610589527217,2.3664319132398464,13.289093272304171,31.30814590485997,6.371812928829597,14.979986648859205
24,1.5491933384829668,1.8439088914585775,1.7888543819998317,2.280350850198276,8.854377448471462,12.441864811996632,13.046072205840346,16.36459593146131
25,0.8944271909999159,1.7888543819998317,2.04939015319192,2.0,26.32109420217936,16.786899654194638,13.83473888441701,9.736529155710468
26,0.8944271909999159,1.9493588689617927,1.7888543819998317,1.2649110640673518,13.45362404707371,4.9396356140913875,4.358898943540674,21.872356983187704
27,0.8944271909999159,0.8944271909999159,1.2649110640673518,3.521363372331802,22.72443618662518,11.322543883774529,6.06630035524124,2.6832815729997477
28,3.4351128074635335,1.9493588689617927,2.932575659723036,4.494441010848846,33.430524973443056,20.770170918892315,7.5099933422074345,1.4832396974191326
29,2.8284271247461903,1.9493588689617927,0.8944271909999159,2.6457513110645907,6.4031242374328485,26.015380066414558,6.212889826803627,9.444575162494075
30,2.6457513110645907,0.7745966692414834,1.8439088914585775,2.6457513110645907,16.01873902652765,14.953260514014994,11.0,5.727128425310541
31,2.449489742783178,1.4832396974191326,1.5491933384829668,2.4899799195977463,11.216059914247962,4.8373546489791295,2.756809750418044,12.10784869413225
32,2.6457513110645907,1.8973665961010275,1.61245154965971,1.7888543819998317,7.602631123499285,12.312595177297109,6.663332499583072,10.411532067856296
33,2.32379000772445,1.5491933384829668,1.2649110640673518,2.6457513110645907,9.316651759081692,12.016655108639842,6.587867636800241,3.847076812334269
34,2.6076809620810595,2.569046515733026,2.04939015319192,1.0954451150103321,7.085195833567341,6.7379522111692065,8.602325267042627,12.545915670049755
35,2.0,1.4832396974191326,1.4832396974191326,0.7745966692414834,1.4832396974191326,5.692099788303083,8.590692637965812,7.496665925596525
36,1.1832159566199232,1.4832396974191326,1.1832159566199232,1.61245154965971,9.969954864491614,11.958260743101398,3.82099463490856,9.284395510748128
37,2.32379000772445,2.0976176963403033,1.0,1.61245154965971,13.490737563232042,9.011104260855047,5.709640969448079,4.8373546489791295
38,2.04939015319192,0.7745966692414834,1.2649110640673518,2.4083189157584592,40.29888335921977,15.257784898208522,2.6457513110645907,11.713240371477058
39,1.0,1.2649110640673518,0.8944271909999159,0.8944271909999159,16.0,3.5777087639996634,15.17893276880822,7.37563556583431
40,3.255764119219941,2.32379000772445,1.4142135623730951,1.4142135623730951,7.014271166700073,6.6783231428256,3.794733192202055,13.3566462856512
41,1.4832396974191326,0.4472135954999579,1.2649110640673518,3.4351128074635335,11.180339887498949,6.082762530298219,12.280065146407,11.0
42,1.5491933384829668,0.4472135954999579,1.0,0.8944271909999159,9.241212041718338,10.611314715905847,3.0983866769659336,8.35463942968217
43,3.4351128074635335,2.7202941017470885,2.0,3.1937438845342623,3.5496478698597698,11.47170431975999,5.176871642217914,10.256705123966467
44,0.0,0.7745966692414834,0.8944271909999159,0.6324555320336759,6.387487769068525,28.01071223657121,5.403702434442518,14.832396974191326
45,0.8944271909999159,1.2649110640673518,1.61245154965971,1.2649110640673518,21.41494805036893,11.419281938896159,2.449489742783178,12.02497401244593
46,0.8944271909999159,1.3416407864998738,1.0,1.5491933384829668,5.674504383644443,4.560701700396552,3.82099463490856,11.882760622010357
47,1.4832396974191326,0.7745966692414834,1.4832396974191326,1.6733200530681511,18.70294094520966,5.744562646538029,2.449489742783178,6.371812928829597
48,2.32379000772445,2.5298221281347035,2.4899799195977463,1.9493588689617927,17.567014544310027,17.95550054997075,11.16243700990066,11.20714058089752
49,0.7745966692414834,1.61245154965971,2.280350850198276,1.4832396974191326,16.389020715100706,8.461678320522472,4.8166378315169185,10.363397126425292
50,3.286335345030997,2.756809750418044,1.0,3.0983866769659336,29.086079144497972,12.083045973594572,5.422176684690384,9.767292357659825
51,1.6733200530681511,2.1447610589527217,1.4832396974191326,2.4083189157584592,24.779023386727733,23.862103846894975,4.494441010848846,5.253570214625479
52,0.7745966692414834,1.61245154965971,1.61245154965971,3.1304951684997055,9.848857801796104,17.82133552795637,10.459445491994305,4.2895221179054435
53,0.8944271909999159,1.3416407864998738,1.4832396974191326,3.1622776601683795,23.45207879911715,8.35463942968217,9.121403400793104,11.428035701729321
54,1.5491933384829668,2.1908902300206643,1.4832396974191326,3.0983866769659336,8.910667763978186,14.886235252742717,5.761944116355173,9.476286192385707
55,2.6076809620810595,1.3416407864998738,0.8944271909999159,2.0,3.521363372331802,14.057026712644463,6.016643582596529,8.706319543871567
56,0.4472135954999579,1.6733200530681511,2.23606797749979,2.5298221281347035,3.924283374069717,8.209750300709517,7.536577472566709,6.0332412515993425
57,1.2649110640673518,1.0,1.1832159566199232,1.7320508075688772,6.723094525588644,15.264337522473747,8.024961059095553,11.50651989091402
58,1.2649110640673518,0.4472135954999579,2.1908902300206643,1.4142135623730951,8.508818954473059,16.81071087134628,8.48528137423857,13.371611720357423
59,1.8973665961010275,1.4832396974191326,0.8944271909999159,1.0,21.330729007701542,18.466185312619388,11.419281938896159,10.658330075579382
60,1.0954451150103321,1.4142135623730951,0.8944271909999159,1.4832396974191326,6.496152707564686,17.227884373886425,8.221921916437786,5.215361924162119
61,3.605551275463989,3.1622776601683795,2.0,2.449489742783178,16.2234398325386,33.823069050575526,4.024922359499621,9.338094023943002
62,1.0,2.0,2.1908902300206643,2.449489742783178,9.695359714832659,19.256167843057455,8.258329128825032,11.20714058089752
63,0.8944271909999159,0.6324555320336759,1.2649110640673518,3.1622776601683795,4.516635916254486,4.404543109109048,8.024961059095553,2.7202941017470885
64,1.8439088914585775,1.2649110640673518,0.7745966692414834,1.0954451150103321,5.639148871948674,9.549869109050658,7.238784428341543,4.123105625617661
65,1.4832396974191326,1.4832396974191326,1.4142135623730951,1.5491933384829668,15.388307249337076,10.620734437881403,4.123105625617661,6.782329983125268
66,1.6733200530681511,1.7320508075688772,1.7888543819998317,1.6733200530681511,10.019980039900279,7.334848328356899,2.1908902300206643,5.0990195135927845
67,1.4832396974191326,1.0954451150103321,1.1832159566199232,1.3416407864998738,9.85900603509299,7.835815209663893,1.9493588689617927,5.932958789676531
68,1.6733200530681511,1.0,1.7320508075688772,1.3416407864998738,10.178408519999577,17.429859437184227,3.3466401061363023,10.79814798935447
69,1.7888543819998317,2.3664319132398464,2.6832815729997477,3.9749213828703582,22.217110523198105,28.30194339616981,2.6457513110645907,13.468481725866505
70,1.8439088914585775,0.6324555320336759,1.0954451150103321,1.4142135623730951,20.8806130178211,6.387487769068525,7.694153624668538,12.593649193144932
71,3.687817782917155,1.2649110640673518,2.1447610589527217,2.280350850198276,16.619265928433784,3.7682887362833544,2.6832815729997477,5.932958789676531
72,1.8973665961010275,1.4142135623730951,1.1832159566199232,2.898275349237888,23.98332754227403,9.591663046625438,7.183313998427188,13.914021704740868
73,2.280350850198276,1.6733200530681511,1.61245154965971,3.6606010435446255,21.927152117865194,14.785127662620976,5.709640969448079,6.496152707564686
74,1.61245154965971,0.8944271909999159,0.7745966692414834,1.61245154965971,29.97665758552811,21.03330692021585,8.136338242723197,8.0
75,2.23606797749979,1.4832396974191326,2.1908902300206643,1.8439088914585775,28.400704216621108,14.085453489327207,6.340346993658944,4.0743097574926725
76,1.7888543819998317,2.5298221281347035,2.3664319132398464,1.8439088914585775,3.7682887362833544,10.207840124139876,9.767292357659825,9.6850400102426
77,1.0,1.0954451150103321,1.5491933384829668,1.9493588689617927,7.183313998427188,16.241921068642096,5.709640969448079,14.717336715588184
78,1.3416407864998738,1.8439088914585775,1.4832396974191326,1.1832159566199232,6.196773353931867,23.83275057562597,6.782329983125268,16.35236985883086
79,1.0,1.5491933384829668,1.2649110640673518,1.6733200530681511,8.899438184514796,16.174053295324583,4.898979485566356,5.0
80,2.0,1.0,2.0976176963403033,1.6733200530681511,17.94993036198191,19.585709075752145,10.198039027185569,4.69041575982343
81,1.2649110640673518,0.6324555320336759,1.0,2.1447610589527217,6.54217089351845,24.400819658363936,9.338094023943002,7.26636084983398
82,3.03315017762062,2.0976176963403033,2.6832815729997477,2.280350850198276,12.271919165313957,10.411532067856296,6.2289646009589745,8.555699854482976
83,2.04939015319192,2.449489742783178,1.8973665961010275,1.2649110640673518,5.848076606885378,30.245660845813898,5.882176467941097,13.281566172707194
84,1.4832396974191326,1.8439088914585775,1.8439088914585775,2.04939015319192,10.009995004993758,16.69131510696506,3.03315017762062,6.115553940568262
85,2.04939015319192,1.4832396974191326,1.9493588689617927,2.6457513110645907,11.0,24.08318915758459,9.09945053286186,15.524174696260024
86,1.2649110640673518,2.4083189157584592,1.6733200530681511,2.3664319132398464,14.805404418657398,6.324555320336759,2.5298221281347035,7.113367697511496
87,1.7888543819998317,0.8944271909999159,0.8944271909999159,2.9664793948382653,21.142374511865974,11.027239001672177,5.656854249492381,8.966604708583958
88,2.932575659723036,2.6076809620810595,1.2649110640673518,3.9749213828703582,11.47170431975999,19.250974001333024,5.138093031466052,11.593101396951552
89,1.61245154965971,0.8944271909999159,1.0,1.61245154965971,8.449852069711044,14.099645385611653,5.458937625582473,10.334408546211051
90,0.8944271909999159,0.8944271909999159,2.4083189157584592,1.3416407864998738,4.560701700396552,6.752777206453653,7.602631123499285,9.38083151964686
91,2.9664793948382653,1.3416407864998738,0.7745966692414834,1.4832396974191326,4.669047011971501,8.0,11.40175425099138,16.46207763315433
92,2.280350850198276,1.6733200530681511,1.61245154965971,2.1908902300206643,5.744562646538029,36.502054736685714,5.639148871948674,7.523297149521611
93,1.4142135623730951,1.2649110640673518,1.0,1.0,11.072488428533127,6.826419266350405,3.605551275463989,7.085195833567341
94,1.4832396974191326,1.4832396974191326,2.0,1.6733200530681511,7.085195833567341,13.83473888441701,9.055385138137417,26.664583251946766
95,2.1447610589527217,1.2649110640673518,1.61245154965971,1.0,10.353743284435827,21.203773249117717,10.16857905510893,8.06225774829855
96,3.4351128074635335,0.4472135954999579,0.7745966692414834,1.2649110640673518,5.5677643628300215,7.127411872482185,8.306623862918075,13.475904422338413
97,1.4832396974191326,1.7320508075688772,1.1832159566199232,2.4899799195977463,9.465727652959385,15.270887335056859,8.099382692526634,14.546477236774544
98,2.1447610589527217,2.0976176963403033,2.1447610589527217,2.0976176963403033,10.469001862641921,16.619265928433784,6.6783231428256,10.13903348450926
99,2.4083189157584592,1.1832159566199232,1.4142135623730951,0.8944271909999159,5.347896782848375,13.978555004005242,11.242775458044157,8.54400374531753
100,1.5491933384829668,1.0,2.4899799195977463,0.6324555320336759,14.886235252742717,3.1304951684997055,2.04939015319192,3.1622776601683795
101,1.3416407864998738,1.2649110640673518,1.2649110640673518,1.0954451150103321,9.909591313469996,13.957077057894322,5.118593556827891,11.357816691600547
102,1.9493588689617927,1.6733200530681511,3.1622776601683795,3.4351128074635335,9.348796714016196,12.93058390019569,3.3466401061363023,7.224956747275377
103,1.7320508075688772,1.61245154965971,2.569046515733026,2.898275349237888,9.16515138991168,11.85748708622531,5.882176467941097,6.797058187186572
104,1.61245154965971,1.6733200530681511,1.6733200530681511,1.61245154965971,5.440588203494177,2.8284271247461903,6.7379522111692065,4.2895221179054435
105,0.6324555320336759,1.0954451150103321,1.0,2.32379000772445,3.4351128074635335,4.09878030638384,3.63318042491699,6.7379522111692065
106,2.0,1.6733200530681511,1.0,1.0,1.0,4.898979485566356,2.04939015319192,4.09878030638384
107,1.1832159566199232,0.7745966692414834,0.7745966692414834,1.4142135623730951,6.971370023173351,17.52141546793523,6.841052550594828,8.48528137423857
108,1.61245154965971,1.61245154965971,1.61245154965971,1.6733200530681511,5.916079783099616,19.266551326067674,5.118593556827891,6.131883886702357
109,1.4832396974191326,1.8439088914585775,2.23606797749979,1.9493588689617927,3.0,7.155417527999327,5.674504383644443,5.458937625582473
110,2.280350850198276,1.7888543819998317,1.1832159566199232,1.8439088914585775,6.06630035524124,13.243866504914644,9.20869154657707,10.237187113655782
111,1.4142135623730951,0.4472135954999579,1.1832159566199232,3.0,17.134759992483115,7.402702209328699,4.0743097574926725,9.08845421400141
112,1.2649110640673518,0.7745966692414834,3.1622776601683795,4.427188724235731,4.427188724235731,12.409673645990857,6.148170459575759,15.257784898208522
113,1.2649110640673518,2.569046515733026,1.0954451150103321,1.2649110640673518,21.72556098240043,7.835815209663893,6.752777206453653,2.32379000772445
114,2.569046515733026,0.7745966692414834,2.32379000772445,2.0,4.898979485566356,28.259511673063283,4.669047011971501,2.4083189157584592
115,2.4083189157584592,1.61245154965971,0.6324555320336759,1.5491933384829668,10.573551910309043,9.16515138991168,5.310367218940701,4.47213595499958
116,2.04939015319192,2.23606797749979,1.3416407864998738,1.4832396974191326,3.3466401061363023,17.070442290696512,5.513619500836088,11.072488428533127
117,1.1832159566199232,1.0954451150103321,0.7745966692414834,1.4142135623730951,21.73476477903545,13.827508813954884,8.740709353364863,19.1049731745428
118,1.6733200530681511,1.4832396974191326,3.1622776601683795,5.5677643628300215,8.899438184514796,3.0,3.521363372331802,7.937253933193772
119,1.9493588689617927,0.6324555320336759,1.4142135623730951,0.7745966692414834,27.003703449712226,5.253570214625479,11.063453348751466,4.0
120,4.8166378315169185,0.6324555320336759,1.0,1.9493588689617927,4.47213595499958,19.81918262693999,8.221921916437786,4.560701700396552
121,2.04939015319192,0.8944271909999159,1.4832396974191326,0.8944271909999159,9.664367542679656,16.498484778912275,5.848076606885378,9.909591313469996
122,3.7682887362833544,1.9493588689617927,0.7745966692414834,1.4142135623730951,8.843076387773658,11.764352935882194,9.45515732285825,6.648308055437865
123,2.04939015319192,2.280350850198276,1.9493588689617927,3.03315017762062,7.886697661252142,15.479018056711478,5.059644256269407,5.422176684690384
124,1.0954451150103321,2.23606797749979,2.0976176963403033,2.792848008753788,10.295630140987,13.423859355639868,3.847076812334269,13.475904422338413
125,0.8944271909999159,1.4832396974191326,1.1832159566199232,2.6076809620810595,16.431676725154983,10.516653460107925,4.219004621945797,7.745966692414834
126,1.4832396974191326,1.0,1.5491933384829668,1.8439088914585775,4.381780460041329,10.029955134495866,14.669696656713798,5.761944116355173
127,2.0976176963403033,1.8439088914585775,1.6733200530681511,2.32379000772445,5.039841267341661,10.89954127475097,2.8284271247461903,1.7888543819998317
128,1.5491933384829668,1.2649110640673518,3.3466401061363023,5.5677643628300215,11.730302638892145,6.48074069840786,1.0,10.079682534683322
129,0.8944271909999159,1.4832396974191326,0.7745966692414834,2.1908902300206643,13.74772708486752,8.07465169527454,5.656854249492381,10.08959860450355
130,2.32379000772445,1.0954451150103321,1.1832159566199232,2.1447610589527217,13.725887949418793,10.16857905510893,4.626013402488151,10.723805294763608
131,0.7745966692414834,0.7745966692414834,0.8944271909999159,3.40587727318528,3.22490309931942,11.7983049630021,6.04979338490167,18.005554698481244
132,3.22490309931942,1.3416407864998738,0.4472135954999579,2.32379000772445,25.810850431553007,4.0743097574926725,11.670475568716126,39.80452235613436
133,2.3664319132398464,1.61245154965971,2.0976176963403033,2.4083189157584592,7.602631123499285,3.847076812334269,8.258329128825032,12.876334882255899
134,1.2649110640673518,1.4832396974191326,0.0,1.4832396974191326,12.853015210447703,4.669047011971501,1.4142135623730951,9.664367542679656
135,1.4832396974191326,1.2649110640673518,1.61245154965971,1.9493588689617927,8.508818954473059,20.67849124090053,5.059644256269407,13.711309200802088
136,1.2649110640673518,1.4832396974191326,1.2649110640673518,1.61245154965971,8.35463942968217,19.3183850256692,5.176871642217914,5.176871642217914
137,0.6324555320336759,1.0,1.61245154965971,1.1832159566199232,13.053735097664577,11.77285012220915,5.272570530585627,2.23606797749979
138,0.0,1.0,1.3416407864998738,1.2649110640673518,11.216059914247962,11.063453348751466,6.099180272790763,10.305338422390601
139,1.3416407864998738,1.6733200530681511,1.0,0.7745966692414834,6.212889826803627,13.228756555322953,6.870225614927067,10.779610382569492
140,2.0,0.0,0.6324555320336759,2.0,37.1806401235912,11.713240371477058,4.69041575982343,9.38083151964686
141,1.7888543819998317,1.1832159566199232,2.0976176963403033,2.23606797749979,7.0992957397195395,4.47213595499958,3.8987177379235853,11.730302638892145
142,1.5491933384829668,1.7888543819998317,1.61245154965971,1.3416407864998738,8.831760866327848,9.154233993076646,10.029955134495866,24.079036525575518
143,1.9493588689617927,1.0,1.8439088914585775,4.1952353926806065,13.0,8.48528137423857,3.492849839314596,9.465727652959385
144,2.0,0.4472135954999579,1.2649110640673518,6.324555320336759,27.730849247724095,9.674709297958259,2.8284271247461903,13.971399357258385
145,2.756809750418044,2.0,1.0,1.3416407864998738,22.777181564012697,8.94427190999916,6.942621983083913,9.989994994993742
146,1.4832396974191326,0.7745966692414834,2.0,1.61245154965971,7.58946638440411,4.857983120596447,3.794733192202055,11.541230437002806
147,1.61245154965971,1.4142135623730951,1.4142135623730951,1.1832159566199232,6.0332412515993425,5.5677643628300215,16.272676485446393,11.045361017187261
148,2.449489742783178,1.8439088914585775,1.8439088914585775,2.32379000772445,7.681145747868608,4.8373546489791295,3.687817782917155,9.444575162494075
149,1.2649110640673518,0.8944271909999159,1.4142135623730951,2.8284271247461903,5.215361924162119,11.541230437002806,4.8373546489791295,6.356099432828281
150,2.0,1.0954451150103321,0.7745966692414834,1.1832159566199232,11.242775458044157,12.876334882255899,3.0983866769659336,5.813776741499453
151,0.8944271909999159,0.6324555320336759,0.8944271909999159,1.4142135623730951,13.564659966250536,4.516635916254486,7.694153624668538,5.744562646538029
152,1.8439088914585775,1.6733200530681511,0.6324555320336759,2.23606797749979,6.082762530298219,5.60357029044876,3.924283374069717,7.155417527999327
153,1.61245154965971,1.5491933384829668,1.7888543819998317,2.5298221281347035,20.044949488586894,12.976902558006667,7.155417527999327,11.081516141756055
154,2.32379000772445,1.4142135623730951,2.32379000772445,1.4832396974191326,6.6932802122726045,13.892443989449804,9.17605579756357,7.563068160475615
155,1.5491933384829668,2.8635642126552705,1.9493588689617927,2.756809750418044,17.815723392554116,20.287927444665215,8.921883209278185,4.8166378315169185
156,0.7745966692414834,1.4142135623730951,1.8973665961010275,2.280350850198276,12.214745187681975,6.418722614352485,9.241212041718338,8.07465169527454
157,1.3416407864998738,1.0954451150103321,1.6733200530681511,1.61245154965971,15.31012736720371,9.17605579756357,7.238784428341543,12.521980673998822
158,0.7745966692414834,0.0,0.7745966692414834,1.0,13.957077057894322,2.0,5.019960159204453,16.558985476169727
159,2.4083189157584592,3.0983866769659336,1.8439088914585775,3.0983866769659336,1.0,20.396078054371138,5.9833101206606365,8.613942186943213
160,2.32379000772445,0.6324555320336759,0.6324555320336759,1.9493588689617927,8.854377448471462,20.410781464706343,3.521363372331802,1.9493588689617927
161,2.32379000772445,0.0,0.8944271909999159,2.1447610589527217,3.40587727318528,5.761944116355173,4.8373546489791295,2.8284271247461903
162,1.0954451150103321,2.1447610589527217,1.1832159566199232,1.4832396974191326,4.626013402488151,2.4899799195977463,1.6733200530681511,8.567379996241558
163,2.4083189157584592,2.04939015319192,1.2649110640673518,2.4083189157584592,10.478549517943788,7.987490219086343,14.38054240979804,15.414279094398154
164,2.280350850198276,1.8439088914585775,1.6733200530681511,2.32379000772445,9.664367542679656,26.003845869409396,11.445523142259598,14.415269681833914
165,2.32379000772445,2.569046515733026,0.6324555320336759,2.1908902300206643,8.012490249604053,17.45279347267938,11.77285012220915,13.475904422338413
166,2.5298221281347035,0.6324555320336759,1.61245154965971,1.4832396974191326,7.523297149521611,6.29285308902091,4.33589667773576,3.40587727318528
167,3.1937438845342623,2.04939015319192,0.8944271909999159,1.61245154965971,1.9493588689617927,6.841052550594828,2.6457513110645907,3.687817782917155
168,2.0976176963403033,1.4142135623730951,1.9493588689617927,1.7888543819998317,15.21840990379744,15.855598380382874,5.059644256269407,6.148170459575759
169,2.6457513110645907,1.6733200530681511,1.7320508075688772,1.61245154965971,9.57078889120432,11.081516141756055,9.17605579756357,12.393546707863734
170,2.0,1.61245154965971,1.4142135623730951,1.2649110640673518,7.962411694957753,1.2649110640673518,5.796550698475776,9.715966241192895
171,1.8439088914585775,0.4472135954999579,1.4832396974191326,1.4832396974191326,12.222929272478018,9.909591313469996,10.14889156509222,10.890362712049585
172,1.4142135623730951,1.6733200530681511,1.7320508075688772,1.4142135623730951,9.08845421400141,7.937253933193772,5.272570530585627,15.362291495737216
173,1.61245154965971,1.0954451150103321,2.1447610589527217,1.2649110640673518,2.898275349237888,9.412757300600074,4.449719092257398,8.23407554009556
174,2.4083189157584592,1.2649110640673518,1.4142135623730951,1.8439088914585775,21.822007240398396,4.753945729601885,9.518403227432634,8.977750274985375
175,0.8944271909999159,1.4832396974191326,0.8944271909999159,0.7745966692414834,14.669696656713798,3.847076812334269,4.266145801540309,6.244997998398398
176,1.2649110640673518,0.8944271909999159,1.9493588689617927,1.0,7.14142842854285,29.782545223670862,8.258329128825032,6.180614856144977
177,1.6733200530681511,1.61245154965971,1.61245154965971,2.1908902300206643,6.06630035524124,18.4499322491981,5.761944116355173,5.440588203494177
178,2.1908902300206643,1.3416407864998738,2.0976176963403033,1.4832396974191326,21.711747972008148,7.628892449104261,5.513619500836088,7.937253933193772
179,1.2649110640673518,1.5491933384829668,1.7888543819998317,2.23606797749979,22.960836221705865,5.621387729022079,5.385164807134504,6.131883886702357
180,1.6733200530681511,2.3664319132398464,2.04939015319192,2.4899799195977463,14.338758663147937,8.637129152675673,13.813037319865606,20.53290042833696
181,1.5491933384829668,0.8944271909999159,1.7888543819998317,1.4832396974191326,8.579044235810887,14.310835055998654,3.0,5.366563145999495
182,2.5298221281347035,2.32379000772445,1.6733200530681511,0.8944271909999159,8.520563361656317,10.382677881933928,3.6606010435446255,7.655063683601855
183,1.8973665961010275,1.3416407864998738,1.0,2.6076809620810595,6.148170459575759,5.692099788303083,8.136338242723197,5.157518783291051
184,1.0,1.0,1.0,0.8944271909999159,12.505998560690786,5.440588203494177,6.06630035524124,5.0990195135927845
185,1.0,0.7745966692414834,1.4832396974191326,1.2649110640673518,8.78635305459552,11.636150566231086,4.242640687119285,3.6606010435446255
186,1.0,0.4472135954999579,2.1908902300206643,1.4832396974191326,13.091982279242513,10.459445491994305,6.276941930590086,12.712198865656562
187,1.4832396974191326,1.4832396974191326,1.6733200530681511,1.3416407864998738,8.136338242723197,7.085195833567341,6.276941930590086,3.5777087639996634
188,1.7888543819998317,0.6324555320336759,1.6733200530681511,0.8944271909999159,5.656854249492381,5.5677643628300215,2.8635642126552705,6.723094525588644
189,0.4472135954999579,1.7888543819998317,0.4472135954999579,1.0,1.2649110640673518,7.64198926981712,2.8284271247461903,7.64198926981712
190,2.0,1.2649110640673518,2.04939015319192,3.255764119219941,29.13417237540823,2.6457513110645907,4.312771730569565,4.69041575982343
191,2.0,0.7745966692414834,1.4832396974191326,0.7745966692414834,9.316651759081692,9.154233993076646,10.611314715905847,7.937253933193772
192,1.9493588689617927,2.280350850198276,1.7320508075688772,1.4832396974191326,14.933184523068078,16.721243972862784,3.40587727318528,4.9396356140913875
193,1.7888543819998317,1.4832396974191326,1.4832396974191326,1.4832396974191326,4.404543109109048,24.310491562286437,8.648699324175862,20.332240407785857
194,2.7202941017470885,1.8439088914585775,2.0,1.1832159566199232,13.957077057894322,8.12403840463596,7.0710678118654755,16.272676485446393
195,1.0954451150103321,0.8944271909999159,2.0,1.0954451150103321,30.18608951156145,6.324555320336759,2.756809750418044,12.457929201917949
196,2.569046515733026,2.1908902300206643,1.3416407864998738,1.9493588689617927,16.911534525287763,10.583005244258363,5.692099788303083,10.917875251164945
197,1.2649110640673518,1.61245154965971,2.04939015319192,3.794733192202055,20.044949488586894,13.70401401050072,1.7888543819998317,8.67179335547152
198,1.5491933384829668,1.2649110640673518,0.8944271909999159,3.255764119219941,12.425779653607254,17.326280616450838,4.219004621945797,7.496665925596525
199,1.6733200530681511,0.0,1.5491933384829668,1.0954451150103321,6.148170459575759,7.1693793315739685,2.0,10.246950765959598
200,1.7320508075688772,1.0954451150103321,0.6324555320336759,1.8439088914585775,9.033271832508971,6.971370023173351,2.6832815729997477,6.767569726275452
201,2.932575659723036,2.04939015319192,1.2649110640673518,3.9496835316262997,13.520355024924458,23.034756347745464,4.626013402488151,6.082762530298219
202,1.2649110640673518,1.6733200530681511,0.7745966692414834,2.932575659723036,16.504544828622205,20.933227175951632,4.538722287164087,5.310367218940701
203,1.4832396974191326,1.6733200530681511,1.7888543819998317,1.7888543819998317,12.86856635371633,8.508818954473059,5.157518783291051,7.758865896508329
204,4.494441010848846,2.6832815729997477,2.04939015319192,4.0743097574926725,15.033296378372908,10.16857905510893,2.6076809620810595,8.270429251254134
205,1.5491933384829668,1.61245154965971,1.61245154965971,0.8944271909999159,1.61245154965971,8.160882305241266,9.02219485491197,16.419500601419035
206,2.4083189157584592,2.0,1.0,0.7745966692414834,2.0,9.497368056467012,12.537942414925983,22.895414388038493
207,1.61245154965971,1.5491933384829668,1.0,0.8944271909999159,5.0,2.7202941017470885,5.157518783291051,11.054410884348384
208,1.6733200530681511,1.6733200530681511,1.0,0.6324555320336759,5.019960159204453,6.7379522111692065,7.334848328356899,8.54400374531753
209,0.7745966692414834,1.4832396974191326,1.5491933384829668,1.4832396974191326,10.334408546211051,14.212670403551895,6.308724118235001,5.865151319446072
210,2.32379000772445,1.0954451150103321,1.7888543819998317,3.4351128074635335,16.327890249508663,4.427188724235731,3.924283374069717,12.743625857659193
211,1.8973665961010275,1.9493588689617927,1.0954451150103321,3.605551275463989,48.03956702552595,32.28312252555505,6.985699678629192,15.684387141358123
212,2.1447610589527217,1.6733200530681511,0.6324555320336759,1.6733200530681511,11.882760622010357,6.4031242374328485,6.7379522111692065,5.176871642217914
213,2.6076809620810595,0.6324555320336759,1.1832159566199232,1.61245154965971,23.16031087874254,11.610340218959994,5.059644256269407,14.737706741552431
214,2.792848008753788,1.5491933384829668,0.6324555320336759,1.1832159566199232,6.782329983125268,17.988885457415087,7.92464510246358,12.165525060596439
215,2.4083189157584592,0.6324555320336759,2.32379000772445,2.280350850198276,7.707139547199077,7.733045971672482,7.0,12.720062892926277
216,1.9493588689617927,2.0976176963403033,1.2649110640673518,1.0954451150103321,9.909591313469996,10.611314715905847,5.2345009313209605,4.266145801540309
217,2.6457513110645907,1.61245154965971,1.4832396974191326,2.04939015319192,7.014271166700073,8.567379996241558,4.669047011971501,5.0
218,1.61245154965971,1.61245154965971,1.3416407864998738,1.2649110640673518,1.8439088914585775,3.605551275463989,1.0,8.809086218218097
219,2.7202941017470885,1.8439088914585775,1.3416407864998738,3.286335345030997,8.888194417315589,15.093044755780724,6.81175454637056,6.016643582596529
220,2.7202941017470885,1.2649110640673518,0.8944271909999159,1.1832159566199232,7.912016177940993,3.6606010435446255,4.0,22.144976857066254
221,0.7745966692414834,1.8439088914585775,1.5491933384829668,0.8944271909999159,6.48074069840786,20.268201696253172,4.58257569495584,5.674504383644443
222,1.61245154965971,1.3416407864998738,1.4832396974191326,1.6733200530681511,14.512063946937388,10.373041983911952,4.049691346263317,5.549774770204643
223,1.5491933384829668,0.4472135954999579,1.5491933384829668,1.61245154965971,6.340346993658944,8.910667763978186,3.605551275463989,8.809086218218097
224,1.2649110640673518,0.6324555320336759,1.0,0.6324555320336759,3.0,0.0,8.729261137118078,10.411532067856296
225,1.0,1.0954451150103321,2.0976176963403033,2.449489742783178,8.497058314499201,9.746794344808963,3.255764119219941,1.8973665961010275
226,1.4832396974191326,0.8944271909999159,1.2649110640673518,2.5298221281347035,14.401388821915754,7.252585745787498,4.538722287164087,8.717797887081348
227,2.1908902300206643,2.04939015319192,1.0,1.0954451150103321,18.21537811850196,2.756809750418044,2.756809750418044,4.9396356140913875
228,1.8973665961010275,2.8284271247461903,0.8944271909999159,1.0,2.8635642126552705,2.8284271247461903,5.727128425310541,6.957010852370434
229,0.8944271909999159,1.1832159566199232,0.8944271909999159,2.7202941017470885,15.918542646863123,5.458937625582473,3.255764119219941,6.131883886702357
230,2.898275349237888,1.4832396974191326,1.4832396974191326,2.8284271247461903,17.538529014715003,12.561846997953765,2.756809750418044,9.143303560529969
231,2.4083189157584592,1.0,1.0,2.3664319132398464,20.21880312976018,24.13296500639737,3.5777087639996634,15.728954192825409
232,2.449489742783178,2.04939015319192,0.7745966692414834,1.8973665961010275,5.291502622129181,8.988882021697693,5.621387729022079,3.63318042491699
233,3.03315017762062,1.61245154965971,1.5491933384829668,3.687817782917155,17.58408371226661,17.34358671094304,6.324555320336759,17.02351315093333
234,1.8439088914585775,0.7745966692414834,2.23606797749979,3.82099463490856,9.787747442593725,5.0,7.0710678118654755,8.717797887081348
235,0.8944271909999159,0.8944271909999159,1.0,2.23606797749979,2.4083189157584592,5.882176467941097,9.486832980505138,8.35463942968217
236,1.2649110640673518,0.4472135954999579,1.4832396974191326,1.9493588689617927,5.138093031466052,33.19036004625439,8.613942186943213,4.795831523312719
237,1.5491933384829668,1.1832159566199232,1.4142135623730951,1.4832396974191326,21.297887219158618,11.260550608207398,7.321202087089251,6.148170459575759
238,2.0,2.0,2.32379000772445,2.32379000772445,11.687600266949584,8.977750274985375,10.401922899156675,10.305338422390601
239,0.8944271909999159,1.4832396974191326,0.8944271909999159,1.3416407864998738,7.443117626371358,8.209750300709517,4.878524367060187,3.492849839314596
240,2.8284271247461903,1.4832396974191326,1.0954451150103321,0.6324555320336759,6.870225614927067,6.752777206453653,3.63318042491699,5.458937625582473
241,1.6733200530681511,0.7745966692414834,2.04939015319192,1.5491933384829668,21.549941995281564,6.663332499583072,2.449489742783178,7.014271166700073
242,2.04939015319192,1.4142135623730951,1.4832396974191326,1.2649110640673518,26.91839519733671,17.555625878902752,1.0,10.862780491200215
243,1.6733200530681511,4.69041575982343,2.4083189157584592,4.312771730569565,16.73320053068151,9.08845421400141,4.69041575982343,5.882176467941097
244,1.2649110640673518,1.0,0.6324555320336759,0.7745966692414834,3.1937438845342623,7.224956747275377,4.560701700396552,11.384199576606166
245,2.0976176963403033,1.0,2.0976176963403033,2.6076809620810595,8.683317338436964,3.7682887362833544,6.511528238439882,7.563068160475615
246,2.23606797749979,1.6733200530681511,1.3416407864998738,1.2649110640673518,10.639548862616309,7.416198487095663,18.022208521710095,5.830951894845301
247,1.61245154965971,1.0954451150103321,0.6324555320336759,0.7745966692414834,25.73713270743266,8.12403840463596,13.70401401050072,10.881176406988354
248,1.8973665961010275,0.6324555320336759,2.0,2.6832815729997477,7.655063683601855,21.73016336800071,10.545141061171254,18.862661530123475
249,1.9493588689617927,0.7745966692414834,1.9493588689617927,2.0,5.674504383644443,21.358838919754042,12.30447073221762,14.401388821915754
250,1.4832396974191326,1.5491933384829668,1.4832396974191326,2.04939015319192,8.23407554009556,5.744562646538029,4.0743097574926725,4.795831523312719
251,1.5491933384829668,1.4832396974191326,2.0,1.6733200530681511,10.583005244258363,10.246950765959598,2.0,3.4351128074635335
252,0.4472135954999579,0.8944271909999159,0.7745966692414834,1.0954451150103321,11.099549540409287,3.714835124201342,5.761944116355173,6.115553940568262
253,2.6457513110645907,1.0,1.6733200530681511,1.6733200530681511,5.157518783291051,9.879271228182775,6.276941930590086,14.226735395022992
254,1.7888543819998317,0.7745966692414834,1.4832396974191326,2.8635642126552705,12.157302332343306,11.653325705565772,3.847076812334269,3.521363372331802
255,0.8944271909999159,0.6324555320336759,0.8944271909999159,2.0,18.439088914585774,3.872983346207417,5.9497899122574065,4.47213595499958
256,0.7745966692414834,1.0954451150103321,2.1908902300206643,2.1447610589527217,9.528903399657276,11.216059914247962,5.253570214625479,6.855654600401044
257,2.6832815729997477,2.04939015319192,2.04939015319192,0.4472135954999579,6.511528238439882,8.888194417315589,4.959838707054898,6.164414002968976
258,1.0954451150103321,1.0,1.5491933384829668,1.0954451150103321,7.8230428862431785,1.8973665961010275,3.3166247903554,4.8166378315169185
259,0.8944271909999159,0.6324555320336759,1.61245154965971,3.492849839314596,16.858232410309213,3.0,10.0,18.138357147217054
260,1.6733200530681511,1.0954451150103321,1.0954451150103321,2.32379000772445,25.226969695149673,25.023988491045948,6.884765791223402,8.23407554009556
261,0.7745966692414834,1.3416407864998738,2.0976176963403033,3.03315017762062,11.242775458044157,8.342661445845684,8.831760866327848,6.260990336999411
262,1.6733200530681511,1.5491933384829668,0.4472135954999579,1.61245154965971,6.496152707564686,5.059644256269407,11.20714058089752,7.155417527999327
263,0.4472135954999579,0.6324555320336759,1.4142135623730951,4.024922359499621,9.602083107326242,44.622864094542386,11.036303729057115,7.211102550927978
264,2.6457513110645907,1.6733200530681511,1.2649110640673518,2.0,21.12818023399081,8.23407554009556,3.22490309931942,9.969954864491614
265,2.7202941017470885,1.61245154965971,0.8944271909999159,1.8973665961010275,15.8871016865884,3.687817782917155,3.7682887362833544,8.613942186943213
266,1.61245154965971,1.1832159566199232,1.61245154965971,1.4142135623730951,8.294576541331088,10.009995004993758,2.756809750418044,8.843076387773658
267,2.7202941017470885,1.4142135623730951,1.3416407864998738,2.1908902300206643,9.777525249264253,8.294576541331088,4.47213595499958,13.16054710108968
268,2.280350850198276,1.3416407864998738,1.61245154965971,1.61245154965971,8.318653737234168,18.005554698481244,5.019960159204453,7.771743691090179
269,2.0976176963403033,0.6324555320336759,1.6733200530681511,1.4832396974191326,11.823705003085962,6.855654600401044,10.373041983911952,20.014994379214798
270,3.1304951684997055,2.3664319132398464,0.7745966692414834,1.61245154965971,6.131883886702357,7.280109889280518,4.358898943540674,6.884765791223402
271,2.4899799195977463,1.6733200530681511,1.7320508075688772,2.23606797749979,5.727128425310541,15.185519418182572,4.266145801540309,8.07465169527454
272,2.0976176963403033,2.449489742783178,1.1832159566199232,2.0,6.308724118235001,17.36663467687393,6.196773353931867,12.915107432770352
273,1.8439088914585775,2.1908902300206643,1.4142135623730951,1.8439088914585775,7.962411694957753,12.58570617804182,6.0,11.0
274,1.2649110640673518,2.32379000772445,1.1832159566199232,1.0,4.516635916254486,19.53458471531965,2.9664793948382653,6.212889826803627
275,2.04939015319192,1.4832396974191326,1.2649110640673518,1.8439088914585775,11.8490505948789,12.66491215919005,2.04939015319192,5.215361924162119
276,1.1832159566199232,1.4142135623730951,0.8944271909999159,1.0,19.503845774615836,12.353137253345807,4.09878030638384,9.284395510748128
277,4.6475800154489,2.0,1.4832396974191326,3.687817782917155,5.813776741499453,8.497058314499201,2.280350850198276,6.6932802122726045
278,2.3664319132398464,0.6324555320336759,1.3416407864998738,0.7745966692414834,8.07465169527454,15.198684153570664,2.4899799195977463,2.6832815729997477
279,1.4142135623730951,1.7888543819998317,1.6733200530681511,2.1447610589527217,14.049911031746785,5.440588203494177,5.882176467941097,2.0976176963403033
280,1.9493588689617927,1.8439088914585775,1.4832396974191326,2.32379000772445,5.272570530585627,9.011104260855047,5.848076606885378,4.1952353926806065
281,1.6733200530681511,1.7888543819998317,0.7745966692414834,1.6733200530681511,10.019980039900279,10.285912696499032,7.238784428341543,7.8230428862431785
282,2.32379000772445,1.1832159566199232,1.6733200530681511,1.5491933384829668,5.727128425310541,10.04987562112089,7.252585745787498,4.669047011971501
283,1.7320508075688772,1.4142135623730951,1.3416407864998738,1.8973665961010275,12.288205727444508,8.809086218218097,4.516635916254486,8.966604708583958
284,0.8944271909999159,0.7745966692414834,1.61245154965971,0.4472135954999579,3.924283374069717,8.820430828479978,9.50789145920377,3.1622776601683795
285,2.3664319132398464,1.1832159566199232,1.4142135623730951,1.4142135623730951,6.276941930590086,2.898275349237888,6.434283176858165,14.621901381147392
286,1.61245154965971,1.6733200530681511,0.8944271909999159,1.8439088914585775,10.497618777608569,29.863020610782158,8.024961059095553,12.157302332343306
287,2.1447610589527217,1.2649110640673518,1.1832159566199232,1.61245154965971,9.518403227432634,11.575836902790225,6.434283176858165,21.831170376322017
288,2.756809750418044,1.3416407864998738,1.8973665961010275,1.0,5.059644256269407,4.2895221179054435,5.458937625582473,9.497368056467012
289,4.0743097574926725,1.5491933384829668,0.7745966692414834,0.8944271909999159,12.593649193144932,2.8635642126552705,4.381780460041329,8.221921916437786
290,1.8973665961010275,0.4472135954999579,1.2649110640673518,2.0976176963403033,14.608216865860118,10.14889156509222,4.0743097574926725,15.748015748023622
291,3.1622776601683795,1.0,2.449489742783178,1.5491933384829668,3.924283374069717,11.687600266949584,7.861297602813418,9.316651759081692
292,1.61245154965971,1.3416407864998738,1.2649110640673518,2.4083189157584592,30.14962686336267,3.5777087639996634,6.826419266350405,1.61245154965971
293,0.7745966692414834,1.4142135623730951,1.8439088914585775,0.8944271909999159,18.127327436773463,2.32379000772445,4.312771730569565,4.404543109109048
294,1.61245154965971,2.04939015319192,1.4142135623730951,2.04939015319192,7.64198926981712,2.5298221281347035,3.492849839314596,4.47213595499958
295,0.7745966692414834,0.4472135954999579,1.4832396974191326,2.280350850198276,6.276941930590086,16.786899654194638,2.0,12.790621564255586
296,2.7202941017470885,1.0,0.0,2.0,30.394078370630027,4.626013402488151,2.898275349237888,8.23407554009556
297,1.4142135623730951,2.04939015319192,1.0,2.1908902300206643,6.985699678629192,5.253570214625479,1.4142135623730951,6.54217089351845
298,0.4472135954999579,1.0,1.4832396974191326,1.61245154965971,10.069756700139283,22.895414388038493,5.347896782848375,15.05323885414697
299,1.9493588689617927,1.2649110640673518,1.7320508075688772,1.4142135623730951,13.038404810405298,20.307634032550418,10.009995004993758,8.438009243891594
300,1.2649110640673518,0.8944271909999159,1.6733200530681511,3.9749213828703582,19.45764631192581,13.061393493804557,7.224956747275377,4.919349550499537
301,0.6324555320336759,1.7888543819998317,1.4832396974191326,0.7745966692414834,11.436782764396638,7.655063683601855,17.815723392554116,11.144505372604026
302,2.6457513110645907,2.1447610589527217,2.04939015319192,0.4472135954999579,5.5677643628300215,27.35690040922034,13.341664064126334,19.48845812269406
303,2.1908902300206643,1.7888543819998317,1.7888543819998317,2.3664319132398464,7.113367697511496,21.41494805036893,11.189280584559492,14.303845636750978
304,1.2649110640673518,0.7745966692414834,0.7745966692414834,2.280350850198276,17.94993036198191,9.869143833180262,4.0,10.564090116995406
305,1.8973665961010275,1.3416407864998738,1.1832159566199232,1.4142135623730951,6.6783231428256,12.66491215919005,6.587867636800241,9.154233993076646
306,1.9493588689617927,1.61245154965971,1.5491933384829668,1.0954451150103321,4.0,19.328735085359313,5.291502622129181,9.57078889120432
307,2.0,1.4832396974191326,2.7202941017470885,2.32379000772445,2.6832815729997477,5.176871642217914,7.416198487095663,17.01176063786462
308,0.6324555320336759,1.0,0.6324555320336759,2.0976176963403033,19.146801299433804,7.937253933193772,6.618156843109719,11.269427669584644
309,1.8439088914585775,0.6324555320336759,1.9493588689617927,1.6733200530681511,15.760710643876436,9.02219485491197,6.752777206453653,7.293833011524188
310,1.2649110640673518,0.7745966692414834,2.7202941017470885,1.61245154965971,11.541230437002806,5.674504383644443,5.761944116355173,13.878040207464453
311,2.1447610589527217,2.0,1.0,2.0976176963403033,6.164414002968976,9.08845421400141,2.898275349237888,13.038404810405298
312,0.4472135954999579,1.2649110640673518,0.8944271909999159,1.9493588689617927,3.40587727318528,6.81175454637056,7.974960814950754,6.6932802122726045
313,2.3664319132398464,1.61245154965971,1.2649110640673518,0.0,4.312771730569565,7.848566748139434,7.443117626371358,8.390470785361213
314,2.4083189157584592,1.6733200530681511,1.1832159566199232,1.8439088914585775,10.79814798935447,5.310367218940701,6.356099432828281,6.4031242374328485
315,2.0976176963403033,1.3416407864998738,1.4142135623730951,1.0954451150103321,12.214745187681975,4.857983120596447,4.774934554525329,7.26636084983398
316,1.2649110640673518,0.8944271909999159,0.4472135954999579,1.61245154965971,13.638181696985855,12.68857754044952,5.882176467941097,13.935566009315876
317,2.0,0.6324555320336759,1.0,1.6733200530681511,12.401612798341997,5.60357029044876,5.440588203494177,8.567379996241558
318,1.0,1.4142135623730951,1.2649110640673518,1.3416407864998738,9.23038460737146,10.954451150103322,4.024922359499621,5.440588203494177
319,1.4832396974191326,2.04939015319192,0.8944271909999159,2.569046515733026,13.386560424545209,4.604345773288535,3.3763886032268267,4.381780460041329
320,2.0976176963403033,2.0976176963403033,1.8973665961010275,1.5491933384829668,21.05231578710523,9.602083107326242,4.669047011971501,19.914818603241155
321,2.1447610589527217,1.9493588689617927,1.2649110640673518,2.7202941017470885,8.461678320522472,10.26645021416848,4.516635916254486,3.40587727318528
322,2.6457513110645907,1.8439088914585775,1.0954451150103321,1.61245154965971,19.308029417835474,14.338758663147937,7.238784428341543,13.535139452550904
323,1.0,0.7745966692414834,1.1832159566199232,2.0976176963403033,20.391174561559716,5.727128425310541,2.4083189157584592,13.535139452550904
324,1.7320508075688772,0.7745966692414834,1.0,2.5298221281347035,7.758865896508329,26.393180937507324,10.373041983911952,6.663332499583072
325,1.0,0.6324555320336759,0.7745966692414834,3.22490309931942,10.295630140987,13.16054710108968,2.0,6.855654600401044
326,1.9493588689617927,1.61245154965971,1.8439088914585775,1.61245154965971,4.427188724235731,8.966604708583958,5.761944116355173,6.782329983125268
327,1.6733200530681511,1.0,1.0954451150103321,1.2649110640673518,2.04939015319192,4.732863826479693,7.848566748139434,16.443843832875572
328,1.6733200530681511,1.6733200530681511,1.4142135623730951,1.0,1.6733200530681511,6.572670690061994,10.890362712049585,20.1791972090071
329,1.6733200530681511,1.4832396974191326,1.4832396974191326,0.7745966692414834,4.024922359499621,2.8284271247461903,6.276941930590086,7.496665925596525
330,1.6733200530681511,0.8944271909999159,1.0,0.7745966692414834,3.687817782917155,11.480418110852932,7.523297149521611,4.604345773288535
331,2.1908902300206643,1.5491933384829668,0.4472135954999579,0.7745966692414834,8.402380615040002,6.54217089351845,5.291502622129181,1.6733200530681511
332,0.7745966692414834,2.0,1.0,2.6457513110645907,26.42347441196937,16.46815108019112,1.9493588689617927,5.403702434442518
333,1.0,1.0,1.4832396974191326,0.7745966692414834,13.520355024924458,1.0,4.0743097574926725,4.427188724235731
334,1.8973665961010275,1.6733200530681511,1.61245154965971,1.61245154965971,18.005554698481244,14.422205101855956,1.8973665961010275,6.81175454637056
335,1.0,1.0954451150103321,1.6733200530681511,1.3416407864998738,8.854377448471462,1.61245154965971,2.756809750418044,4.774934554525329
336,0.7745966692414834,1.2649110640673518,1.2649110640673518,0.4472135954999579,5.89915248150105,11.958260743101398,4.147288270665544,5.932958789676531
337,3.4641016151377544,1.3416407864998738,0.6324555320336759,1.4142135623730951,20.415680248279752,16.53481176185565,4.919349550499537,7.307530362578044
338,2.4083189157584592,2.932575659723036,1.3416407864998738,1.7320508075688772,7.496665925596525,6.082762530298219,6.4031242374328485,14.785127662620976
339,1.5491933384829668,1.4832396974191326,1.0,1.4832396974191326,10.79814798935447,8.977750274985375,5.531726674375733,12.157302332343306
340,0.6324555320336759,0.7745966692414834,1.6733200530681511,2.0976176963403033,9.08845421400141,5.727128425310541,1.6733200530681511,4.2895221179054435
341,1.4142135623730951,3.22490309931942,1.61245154965971,1.7888543819998317,18.825514601200148,8.717797887081348,5.2345009313209605,13.77679207943562
342,1.6733200530681511,0.4472135954999579,1.61245154965971,2.4083189157584592,18.335757415498275,8.221921916437786,4.959838707054898,10.44030650891055
343,1.9493588689617927,0.7745966692414834,1.0954451150103321,1.4832396974191326,11.933147112141038,21.849485119791723,9.143303560529969,11.916375287812984
344,2.0,0.6324555320336759,1.0,3.1937438845342623,33.13910077235048,6.082762530298219,4.427188724235731,5.674504383644443
345,2.4083189157584592,2.8284271247461903,1.9493588689617927,1.0,9.252026804976301,9.338094023943002,7.0,12.891857895586655
346,1.0,1.9493588689617927,1.6733200530681511,1.4832396974191326,8.752142594816426,15.211837495845135,5.291502622129181,6.115553940568262
347,0.6324555320336759,0.6324555320336759,1.0,1.5491933384829668,7.810249675906654,6.082762530298219,3.8987177379235853,5.272570530585627
348,2.7202941017470885,1.61245154965971,1.0,2.04939015319192,8.899438184514796,7.745966692414834,10.63014581273465,17.509997144488633
349,3.9749213828703582,1.0,1.6733200530681511,1.6733200530681511,3.0983866769659336,2.0,2.3664319132398464,12.66491215919005
350,1.4142135623730951,1.8439088914585775,1.0954451150103321,2.0,4.171330722922842,9.402127418834526,4.242640687119285,9.818350166906862
351,2.0,0.6324555320336759,1.4832396974191326,2.6457513110645907,39.24028542199967,7.334848328356899,5.291502622129181,7.085195833567341
352,1.4832396974191326,0.4472135954999579,1.4142135623730951,0.6324555320336759,15.198684153570664,25.023988491045948,5.674504383644443,11.436782764396638
353,0.4472135954999579,1.8439088914585775,2.23606797749979,0.0,16.36459593146131,8.910667763978186,3.924283374069717,4.1952353926806065
354,0.6324555320336759,1.0,1.0954451150103321,0.0,5.291502622129181,17.487138130637614,10.382677881933928,7.563068160475615
355,0.4472135954999579,1.0,0.8944271909999159,0.8944271909999159,9.838699100999074,9.121403400793104,7.4565407529228995,7.334848328356899
356,0.8944271909999159,0.7745966692414834,1.4832396974191326,2.0976176963403033,3.924283374069717,13.711309200802088,6.371812928829597,3.3166247903554
357,2.0976176963403033,1.7888543819998317,1.3416407864998738,0.8944271909999159,4.878524367060187,7.615773105863909,1.7888543819998317,6.782329983125268
358,1.5491933384829668,1.4142135623730951,0.7745966692414834,0.8944271909999159,5.291502622129181,6.6932802122726045,4.47213595499958,11.099549540409287
359,1.1832159566199232,1.0,1.6733200530681511,1.2649110640673518,6.340346993658944,13.243866504914644,4.69041575982343,2.7202941017470885
360,2.5298221281347035,1.9493588689617927,0.6324555320336759,1.61245154965971,3.0,13.19090595827292,7.402702209328699,12.617448236470002
361,2.6076809620810595,1.61245154965971,0.8944271909999159,1.7888543819998317,3.7682887362833544,9.23038460737146,5.079370039680118,5.440588203494177
362,1.0954451150103321,1.61245154965971,1.0954451150103321,1.4142135623730951,7.197221686178632,5.440588203494177,3.1937438845342623,4.2895221179054435
363,2.1447610589527217,1.0,2.0,2.1447610589527217,5.253570214625479,9.011104260855047,3.3166247903554,5.531726674375733
364,1.61245154965971,1.6733200530681511,1.0,1.1832159566199232,23.799159649029626,12.876334882255899,1.8973665961010275,6.115553940568262
365,0.8944271909999159,2.04939015319192,0.7745966692414834,0.6324555320336759,15.56277610196844,19.162463307205574,4.626013402488151,14.142135623730951
366,1.1832159566199232,0.8944271909999159,1.1832159566199232,2.32379000772445,25.278449319529077,3.714835124201342,5.291502622129181,11.0
367,1.6733200530681511,0.6324555320336759,1.7888543819998317,0.8944271909999159,27.16615541441225,6.06630035524124,3.63318042491699,3.4351128074635335
368,1.0,1.61245154965971,1.2649110640673518,2.04939015319192,26.415904300250634,8.706319543871567,7.771743691090179,7.523297149521611
369,1.3416407864998738,1.7888543819998317,1.4832396974191326,3.1937438845342623,9.715966241192895,17.84936973677222,3.4351128074635335,3.1622776601683795
370,0.7745966692414834,0.6324555320336759,1.3416407864998738,1.4832396974191326,9.736529155710468,6.340346993658944,4.266145801540309,2.6076809620810595
371,1.3416407864998738,1.6733200530681511,1.5491933384829668,1.3416407864998738,3.1622776601683795,5.118593556827891,4.604345773288535,3.0983866769659336
372,3.847076812334269,1.4142135623730951,1.4142135623730951,1.8439088914585775,22.960836221705865,13.213629327327144,10.620734437881403,24.47856204927079
373,0.6324555320336759,1.4142135623730951,0.6324555320336759,1.9493588689617927,9.186947262284681,13.572030061858838,3.687817782917155,6.418722614352485
374,1.3416407864998738,1.4832396974191326,0.7745966692414834,1.4832396974191326,22.812277396174192,9.316651759081692,6.06630035524124,12.222929272478018
375,1.4142135623730951,0.6324555320336759,1.0,1.4832396974191326,12.617448236470002,4.979959839195493,4.171330722922842,13.0
376,1.5491933384829668,0.4472135954999579,1.6733200530681511,0.7745966692414834,7.720103626247513,7.707139547199077,12.617448236470002,18.31938863608718
377,2.932575659723036,1.9493588689617927,2.1908902300206643,3.22490309931942,4.9396356140913875,4.516635916254486,9.757048734120374,10.401922899156675
378,0.0,0.8944271909999159,0.0,2.0,4.669047011971501,5.0,3.0,3.22490309931942
379,3.1622776601683795,1.6733200530681511,0.8944271909999159,1.0,16.858232410309213,11.755849607748475,3.22490309931942,13.557285864065861
380,1.1832159566199232,1.0,0.8944271909999159,1.61245154965971,3.1622776601683795,6.0332412515993425,2.8635642126552705,5.458937625582473
381,2.04939015319192,0.7745966692414834,1.8439088914585775,1.5491933384829668,12.13260071048248,8.270429251254134,3.6606010435446255,12.312595177297109
382,2.0,1.61245154965971,0.8944271909999159,1.2649110640673518,8.497058314499201,3.22490309931942,3.0,1.9493588689617927
383,1.4832396974191326,0.7745966692414834,0.8944271909999159,1.4832396974191326,7.042726744663604,9.38083151964686,5.727128425310541,7.197221686178632
384,0.4472135954999579,2.1908902300206643,2.6076809620810595,0.7745966692414834,17.770762504743573,6.0,7.496665925596525,5.5677643628300215
385,1.0,1.0954451150103321,2.0,2.04939015319192,3.255764119219941,3.8987177379235853,7.1693793315739685,8.888194417315589
386,2.32379000772445,1.5491933384829668,2.932575659723036,1.7888543819998317,4.0743097574926725,13.638181696985855,5.118593556827891,9.528903399657276
387,1.7888543819998317,1.3416407864998738,0.4472135954999579,1.8973665961010275,22.44994432064365,13.258959235173778,4.732863826479693,12.782800945019837
388,1.1832159566199232,1.1832159566199232,1.2649110640673518,1.6733200530681511,27.35324478009876,17.7426040929735,6.7379522111692065,19.79898987322333
389,1.4832396974191326,1.3416407864998738,1.9493588689617927,1.4142135623730951,19.929877069364977,9.359487165438072,3.40587727318528,7.321202087089251
390,1.5491933384829668,0.7745966692414834,0.8944271909999159,1.2649110640673518,16.068602926203635,13.107249902248755,3.794733192202055,19.15202339179858
391,2.0,1.8439088914585775,1.5491933384829668,1.3416407864998738,13.349157276772193,8.17312669668102,5.727128425310541,2.3664319132398464
392,1.1832159566199232,1.0954451150103321,1.61245154965971,1.8439088914585775,5.60357029044876,11.16243700990066,6.115553940568262,5.495452665613635
393,0.8944271909999159,0.8944271909999159,2.280350850198276,2.1908902300206643,11.47170431975999,12.425779653607254,4.33589667773576,5.882176467941097
394,2.0,1.4142135623730951,1.61245154965971,1.8439088914585775,14.071247279470288,18.022208521710095,3.5777087639996634,4.669047011971501
395,2.280350850198276,1.61245154965971,1.8439088914585775,2.7202941017470885,6.356099432828281,17.469974241537965,3.63318042491699,11.144505372604026
396,1.4142135623730951,1.61245154965971,1.2649110640673518,1.8439088914585775,33.5797558061401,31.189741903388683,3.687817782917155,14.44299137990465
397,2.1908902300206643,1.9493588689617927,1.1832159566199232,1.5491933384829668,8.258329128825032,5.674504383644443,6.2289646009589745,18.83613548475377
398,1.5491933384829668,1.1832159566199232,1.0954451150103321,2.32379000772445,6.6332495807108,4.123105625617661,4.0743097574926725,11.41052146047673
399,1.2649110640673518,1.4832396974191326,0.7745966692414834,2.1908902300206643,5.9833101206606365,7.6681158050723255,4.0743097574926725,8.910667763978186
400,1.6733200530681511,2.4083189157584592,2.04939015319192,1.6733200530681511,9.909591313469996,6.324555320336759,5.422176684690384,6.2289646009589745
401,2.32379000772445,1.0,1.0,0.6324555320336759,21.12818023399081,8.049844718999243,2.569046515733026,13.921206844235885
402,2.6076809620810595,2.0,2.6457513110645907,4.669047011971501,15.414279094398154,13.718600511714014,4.626013402488151,7.974960814950754
403,3.0,1.61245154965971,0.7745966692414834,1.4832396974191326,7.127411872482185,17.128922908344236,2.6457513110645907,9.50789145920377
404,2.8284271247461903,2.898275349237888,1.61245154965971,1.0,9.219544457292887,23.50319127267614,6.115553940568262,14.049911031746785
405,1.1832159566199232,1.8439088914585775,1.5491933384829668,1.1832159566199232,10.16857905510893,8.136338242723197,1.5491933384829668,4.626013402488151
406,1.4142135623730951,0.7745966692414834,1.0,1.2649110640673518,6.6332495807108,15.7797338380595,6.767569726275452,21.498837177856853
407,2.1447610589527217,1.1832159566199232,0.7745966692414834,1.0954451150103321,6.276941930590086,9.197825830053535,3.63318042491699,4.919349550499537
408,2.1908902300206643,0.8944271909999159,2.0976176963403033,1.5491933384829668,10.981803130633876,18.16039647144302,3.794733192202055,3.22490309931942
409,1.7888543819998317,0.7745966692414834,1.2649110640673518,1.2649110640673518,2.23606797749979,7.224956747275377,9.848857801796104,11.419281938896159
410,2.1447610589527217,1.61245154965971,1.0,1.1832159566199232,3.924283374069717,5.9833101206606365,6.603029607687671,14.042791745233567
411,1.2649110640673518,2.32379000772445,1.7888543819998317,2.6832815729997477,9.433981132056603,12.149074038789951,6.618156843109719,7.8230428862431785
412,1.2649110640673518,2.0976176963403033,1.6733200530681511,0.8944271909999159,6.180614856144977,12.214745187681975,4.171330722922842,5.0
413,1.9493588689617927,1.2649110640673518,1.6733200530681511,2.932575659723036,9.38083151964686,5.118593556827891,3.1937438845342623,4.669047011971501
414,1.4832396974191326,1.0954451150103321,1.6733200530681511,0.8944271909999159,4.049691346263317,8.136338242723197,5.916079783099616,3.687817782917155
415,1.0954451150103321,0.4472135954999579,0.4472135954999579,1.3416407864998738,4.47213595499958,11.349008767288886,5.118593556827891,3.4351128074635335
416,1.4832396974191326,1.0,1.4142135623730951,0.0,14.184498581197715,8.07465169527454,15.139352694220449,14.324803663575986
417,1.9493588689617927,1.7320508075688772,0.7745966692414834,1.5491933384829668,4.857983120596447,5.744562646538029,5.310367218940701,7.6681158050723255
418,0.6324555320336759,1.6733200530681511,1.8439088914585775,3.286335345030997,20.861447696648476,18.878559267062727,4.266145801540309,5.310367218940701
419,2.0976176963403033,1.0,2.5298221281347035,3.1622776601683795,6.723094525588644,6.276941930590086,7.483314773547883,18.88915032498815
420,1.2649110640673518,1.4142135623730951,0.4472135954999579,1.4832396974191326,21.45693361130616,8.221921916437786,5.329165037789691,8.221921916437786
421,1.2649110640673518,0.8944271909999159,0.8944271909999159,1.61245154965971,6.928203230275509,4.878524367060187,6.148170459575759,5.403702434442518
422,1.2649110640673518,0.8944271909999159,1.0,1.5491933384829668,15.504837954651444,3.1304951684997055,2.280350850198276,3.4351128074635335
423,1.61245154965971,2.04939015319192,1.6733200530681511,2.04939015319192,7.9498427657407165,7.523297149521611,1.61245154965971,14.233762678926468
424,2.04939015319192,1.4832396974191326,2.0976176963403033,2.0,8.294576541331088,26.057628441590765,4.427188724235731,5.531726674375733
425,1.1832159566199232,0.7745966692414834,1.2649110640673518,3.687817782917155,9.989994994993742,12.907362240210041,6.942621983083913,12.47397290361014
426,0.8944271909999159,1.5491933384829668,1.2649110640673518,3.924283374069717,7.252585745787498,8.508818954473059,10.12916580968048,7.155417527999327
427,2.0,1.0,1.6733200530681511,1.5491933384829668,1.6733200530681511,5.422176684690384,11.0,7.615773105863909
428,1.7888543819998317,1.61245154965971,1.0,1.7888543819998317,11.20714058089752,5.019960159204453,8.683317338436964,4.959838707054898
429,1.6733200530681511,0.8944271909999159,1.2649110640673518,1.4832396974191326,6.44980619863884,4.312771730569565,3.82099463490856,4.669047011971501
430,1.7888543819998317,1.0,0.6324555320336759,1.61245154965971,3.492849839314596,2.9664793948382653,3.8987177379235853,5.157518783291051
431,1.0954451150103321,0.8944271909999159,0.7745966692414834,0.7745966692414834,6.164414002968976,14.007141035914502,6.826419266350405,8.820430828479978
432,1.9493588689617927,1.3416407864998738,2.1447610589527217,1.9493588689617927,7.937253933193772,3.1622776601683795,3.8987177379235853,9.6850400102426
433,0.6324555320336759,1.2649110640673518,2.04939015319192,2.1447610589527217,9.17605579756357,3.794733192202055,8.637129152675673,8.683317338436964
